TITLE,
DATA TYPE,ULTRAVIOLET SPECTRUM
ORIGIN,JASCO
OWNER,
DATE,22/10/13
TIME,15:52:24
SPECTROMETER/DATA SYSTEM,
LOCALE,16393
RESOLUTION,
DELTAX,-0.2
XUNITS,NANOMETERS
YUNITS,ABSORBANCE
FIRSTX,  900.0000
LASTX,  200.0000
NPOINTS,    3501
FIRSTY,     0.00510
MAXY,     0.15289
MINY,    -0.00123
XYDATA
900.0000,0.00510183
899.8000,0.00196677
899.6000,0.0022799
899.4000,0.0046937
899.2000,0.00580274
899.0000,0.00482005
898.8000,0.00701625
898.6000,0.00715562
898.4000,0.0011959
898.2000,0.0030265
898.0000,0.00298236
897.8000,-0.00118947
897.6000,-1.51093E-05
897.4000,0.00140469
897.2000,0.000540425
897.0000,0.000640242
896.8000,0.00348977
896.6000,0.00449888
896.4000,0.003616
896.2000,0.00144496
896.0000,-0.000655946
895.8000,0.00147667
895.6000,0.00606579
895.4000,0.00744894
895.2000,0.00295589
895.0000,-0.00103439
894.8000,0.000137768
894.6000,0.00170164
894.4000,-0.000138006
894.2000,0.00175809
894.0000,0.0040603
893.8000,0.00414887
893.6000,0.00587395
893.4000,0.00434071
893.2000,0.00156369
893.0000,0.000165251
892.8000,0.00156042
892.6000,0.00331982
892.4000,0.00149279
892.2000,0.000438943
892.0000,-0.00028327
891.8000,0.00106086
891.6000,0.00175143
891.4000,0.000547623
891.2000,0.00270962
891.0000,0.00341072
890.8000,0.0031262
890.6000,0.00202816
890.4000,0.00228597
890.2000,0.00265251
890.0000,0.00211917
889.8000,0.00209526
889.6000,0.00186564
889.4000,0.000918872
889.2000,0.00343421
889.0000,0.00489351
888.8000,0.00316254
888.6000,0.00197997
888.4000,-0.00122814
888.2000,-0.000407594
888.0000,0.00396078
887.8000,0.00318622
887.6000,-0.000384692
887.4000,0.000355961
887.2000,0.0016835
887.0000,0.00249595
886.8000,0.00353397
886.6000,0.00401866
886.4000,0.00295976
886.2000,0.00142271
886.0000,0.00113052
885.8000,0.00182513
885.6000,0.00144835
885.4000,0.00162122
885.2000,0.00179004
885.0000,0.00082197
884.8000,0.0031231
884.6000,0.00372956
884.4000,0.00252343
884.2000,0.00177814
884.0000,-0.000569692
883.8000,-0.000765697
883.6000,0.00174042
883.4000,0.00159439
883.2000,-0.000842314
883.0000,0.000224558
882.8000,0.00173751
882.6000,0.00167321
882.4000,0.00219216
882.2000,0.0019588
882.0000,0.00191382
881.8000,0.00322518
881.6000,0.0021109
881.4000,0.000980677
881.2000,0.00123926
881.0000,0.00116026
880.8000,0.00262027
880.6000,0.0024458
880.4000,0.000983473
880.2000,0.00139255
880.0000,0.00320252
879.8000,0.0031262
879.6000,0.00173418
879.4000,0.00160706
879.2000,0.00212553
879.0000,0.00241588
878.8000,0.00173239
878.6000,0.00213511
878.4000,0.00220935
878.2000,0.00214397
878.0000,0.00278392
877.8000,0.00103094
877.6000,0.000570108
877.4000,0.00119952
877.2000,0.00127108
877.0000,0.00145121
876.8000,0.00218317
876.6000,0.00256388
876.4000,0.00238293
876.2000,0.00237686
876.0000,0.00141569
875.8000,0.00138054
875.6000,0.00163716
875.4000,0.00162098
875.2000,0.00261569
875.0000,0.00299592
874.8000,0.00313857
874.6000,0.00334338
874.4000,0.00278463
874.2000,0.00277101
874.0000,0.00235194
873.8000,0.0015371
873.6000,0.00173573
873.4000,0.00162592
873.2000,0.00160111
873.0000,0.00141712
872.8000,0.000900134
872.6000,0.000866584
872.4000,0.00160486
872.2000,0.0019695
872.0000,0.000578674
871.8000,0.00104242
871.6000,0.00248304
871.4000,0.00281283
871.2000,0.00184274
871.0000,0.00131838
870.8000,0.00231898
870.6000,0.00246026
870.4000,0.00203012
870.2000,0.00241957
870.0000,0.00292912
869.8000,0.00206325
869.6000,0.00159784
869.4000,0.00222719
869.2000,0.00251814
869.0000,0.00220257
868.8000,0.00270456
868.6000,0.00261855
868.4000,0.00156399
868.2000,0.00133723
868.0000,0.00160855
867.8000,0.00232576
867.6000,0.00223457
867.4000,0.00105503
867.2000,0.00126978
867.0000,0.00178551
866.8000,0.00195124
866.6000,0.00241654
866.4000,0.00228971
866.2000,0.00136549
866.0000,0.00103457
865.8000,0.00185827
865.6000,0.00186862
865.4000,0.00176243
865.2000,0.00159909
865.0000,0.0012436
864.8000,0.00144657
864.6000,0.00171502
864.4000,0.00177415
864.2000,0.00216991
864.0000,0.00261236
863.8000,0.00241505
863.6000,0.00271367
863.4000,0.00217895
863.2000,0.00172181
863.0000,0.00204677
862.8000,0.00209769
862.6000,0.00190692
862.4000,0.00169117
862.2000,0.00177969
862.0000,0.00208128
861.8000,0.0021529
861.6000,0.00210352
861.4000,0.00176939
861.2000,0.00167035
861.0000,0.00192049
860.8000,0.00130226
860.6000,0.00137739
860.4000,0.00220209
860.2000,0.00246567
860.0000,0.0020256
859.8000,0.00175631
859.6000,0.00188581
859.4000,0.00232517
859.2000,0.00275578
859.0000,0.00230756
858.8000,0.00166422
858.6000,0.00211929
858.4000,0.00187778
858.2000,0.00167463
858.0000,0.00208782
857.8000,0.00177302
857.6000,0.00155995
857.4000,0.00169807
857.2000,0.00231624
857.0000,0.00293097
856.8000,0.00288748
856.6000,0.0017293
856.4000,0.00206884
856.2000,0.00267833
856.0000,0.00191918
855.8000,0.00176345
855.6000,0.00246531
855.4000,0.00253045
855.2000,0.00197979
855.0000,0.00190924
854.8000,0.00164376
854.6000,0.0016907
854.4000,0.00245496
854.2000,0.00282639
854.0000,0.00212904
853.8000,0.00210906
853.6000,0.00243545
853.4000,0.00242433
853.2000,0.00255841
853.0000,0.00223986
852.8000,0.00215611
852.6000,0.0020068
852.4000,0.00228329
852.2000,0.00269808
852.0000,0.00218103
851.8000,0.00162562
851.6000,0.00164608
851.4000,0.00213487
851.2000,0.00222505
851.0000,0.00225741
850.8000,0.00253414
850.6000,0.00248298
850.4000,0.00249018
850.2000,0.0023671
850.0000,0.00223808
849.8000,0.00219894
849.6000,0.00204142
849.4000,0.00226461
849.2000,0.00225367
849.0000,0.00201822
848.8000,0.0020573
848.6000,0.00234158
848.4000,0.00235396
848.2000,0.00188194
848.0000,0.00185315
847.8000,0.00224938
847.6000,0.00233808
847.4000,0.00199181
847.2000,0.0019162
847.0000,0.00202477
846.8000,0.00228906
846.6000,0.00240797
846.4000,0.00199252
846.2000,0.00184155
846.0000,0.00224855
845.8000,0.0020065
845.6000,0.00205903
845.4000,0.00243379
845.2000,0.00224409
845.0000,0.00225973
844.8000,0.00251326
844.6000,0.0025433
844.4000,0.0019864
844.2000,0.00199371
844.0000,0.00210001
843.8000,0.00188277
843.6000,0.00223933
843.4000,0.00239524
843.2000,0.00194315
843.0000,0.00181924
842.8000,0.00197908
842.6000,0.00210864
842.4000,0.00237044
842.2000,0.00227466
842.0000,0.00201198
841.8000,0.00235301
841.6000,0.0024439
841.4000,0.00210329
841.2000,0.00210144
841.0000,0.00205249
840.8000,0.00215492
840.6000,0.00225765
840.4000,0.00228656
840.2000,0.00255395
840.0000,0.00217348
839.8000,0.00165001
839.6000,0.0016189
839.4000,0.00150457
839.2000,0.00183786
839.0000,0.00245764
838.8000,0.00230732
838.6000,0.0023235
838.4000,0.00265359
838.2000,0.00265222
838.0000,0.00211191
837.8000,0.00180265
837.6000,0.0020112
837.4000,0.00203571
837.2000,0.00206783
837.0000,0.00214796
836.8000,0.00254372
836.6000,0.00272449
836.4000,0.00229221
836.2000,0.00217717
836.0000,0.00200115
835.8000,0.00211292
835.6000,0.00240512
835.4000,0.0022912
835.2000,0.00234301
835.0000,0.00254526
834.8000,0.00262819
834.6000,0.00210822
834.4000,0.00190472
834.2000,0.00184845
834.0000,0.0020667
833.8000,0.00261224
833.6000,0.00245086
833.4000,0.00233147
833.2000,0.00231416
833.0000,0.00252629
832.8000,0.00240155
832.6000,0.00201543
832.4000,0.00243569
832.2000,0.00219936
832.0000,0.00185035
831.8000,0.00209948
831.6000,0.00234313
831.4000,0.00239833
831.2000,0.00230845
831.0000,0.00231559
830.8000,0.00228281
830.6000,0.00197807
830.4000,0.00186285
830.2000,0.00203161
830.0000,0.00205183
829.8000,0.00191341
829.6000,0.00196748
829.4000,0.00285548
829.2000,0.00309402
829.0000,0.00266584
828.8000,0.00241713
828.6000,0.00201465
828.4000,0.00219817
828.2000,0.00234045
828.0000,0.00255115
827.8000,0.00261064
827.6000,0.00251546
827.4000,0.00243069
827.2000,0.0023561
827.0000,0.00236121
826.8000,0.00223909
826.6000,0.00226181
826.4000,0.00194702
826.2000,0.00163305
826.0000,0.00217378
825.8000,0.0025505
825.6000,0.00259261
825.4000,0.00276102
825.2000,0.00246341
825.0000,0.0024969
824.8000,0.00238126
824.6000,0.00237055
824.4000,0.00266055
824.2000,0.00277517
824.0000,0.00271016
823.8000,0.00263253
823.6000,0.00271896
823.4000,0.00224599
823.2000,0.00225539
823.0000,0.00281301
822.8000,0.00261248
822.6000,0.00253348
822.4000,0.00240732
822.2000,0.0023796
822.0000,0.00258904
821.8000,0.00247323
821.6000,0.00240565
821.4000,0.00235699
821.2000,0.0024505
821.0000,0.00250285
820.8000,0.002337
820.6000,0.0024994
820.4000,0.00252438
820.2000,0.00253604
820.0000,0.00259559
819.8000,0.00250886
819.6000,0.00233784
819.4000,0.00259315
819.2000,0.00250041
819.0000,0.00239203
818.8000,0.00280105
818.6000,0.00234093
818.4000,0.00247953
818.2000,0.00256834
818.0000,0.00232207
817.8000,0.00216598
817.6000,0.0022106
817.4000,0.0024257
817.2000,0.0024373
817.0000,0.00273895
816.8000,0.00269582
816.6000,0.00229346
816.4000,0.00229334
816.2000,0.00265959
816.0000,0.00245996
815.8000,0.00245324
815.6000,0.00292597
815.4000,0.00271075
815.2000,0.0023185
815.0000,0.00246787
814.8000,0.00264092
814.6000,0.00251826
814.4000,0.00242968
814.2000,0.00237686
814.0000,0.00239714
813.8000,0.00227918
813.6000,0.00197486
813.4000,0.00208104
813.2000,0.0025013
813.0000,0.00249089
812.8000,0.00266394
812.6000,0.00257501
812.4000,0.00222131
812.2000,0.00213993
812.0000,0.00204933
811.8000,0.00244991
811.6000,0.00248958
811.4000,0.00218335
811.2000,0.00204309
811.0000,0.00200573
810.8000,0.00223308
810.6000,0.00231666
810.4000,0.00224224
810.2000,0.00224213
810.0000,0.0024094
809.8000,0.00246097
809.6000,0.00231916
809.4000,0.00252879
809.2000,0.00246466
809.0000,0.00217669
808.8000,0.00233873
808.6000,0.00238233
808.4000,0.00267101
808.2000,0.00255817
808.0000,0.0020996
807.8000,0.00229649
807.6000,0.00279921
807.4000,0.00297784
807.2000,0.00263901
807.0000,0.00231571
806.8000,0.00244152
806.6000,0.00300491
806.4000,0.00287261
806.2000,0.00249738
806.0000,0.00261284
805.8000,0.00253634
805.6000,0.00247025
805.4000,0.00246722
805.2000,0.00222291
805.0000,0.00250529
804.8000,0.00285619
804.6000,0.00259654
804.4000,0.00253247
804.2000,0.00244806
804.0000,0.00243837
803.8000,0.00281753
803.6000,0.00293632
803.4000,0.0029174
803.2000,0.0030262
803.0000,0.00307772
802.8000,0.0029312
802.6000,0.0029045
802.4000,0.00290099
802.2000,0.00294215
802.0000,0.00285714
801.8000,0.00276804
801.6000,0.00286607
801.4000,0.00252034
801.2000,0.002596
801.0000,0.0026173
800.8000,0.00217752
800.6000,0.00240547
800.4000,0.00239625
800.2000,0.00242451
800.0000,0.00268095
799.8000,0.00274258
799.6000,0.00268785
799.4000,0.00241826
799.2000,0.00234557
799.0000,0.00218395
798.8000,0.00216372
798.6000,0.00222226
798.4000,0.00222309
798.2000,0.00255549
798.0000,0.00282306
797.8000,0.00273223
797.6000,0.00257947
797.4000,0.00228727
797.2000,0.00219162
797.0000,0.00208032
796.8000,0.0023448
796.6000,0.00278493
796.4000,0.00260511
796.2000,0.00251665
796.0000,0.0024248
795.8000,0.00249773
795.6000,0.00275852
795.4000,0.00283662
795.2000,0.00273716
795.0000,0.00252034
794.8000,0.00261647
794.6000,0.00265947
794.4000,0.00257738
794.2000,0.00276708
794.0000,0.00277571
793.8000,0.00262075
793.6000,0.0025775
793.4000,0.00269362
793.2000,0.00255323
793.0000,0.00245609
792.8000,0.00266751
792.6000,0.00275537
792.4000,0.0028876
792.2000,0.00290313
792.0000,0.00270736
791.8000,0.00260403
791.6000,0.00246995
791.4000,0.00267048
791.2000,0.00280105
791.0000,0.00266281
790.8000,0.00280075
790.6000,0.00271218
790.4000,0.00238775
790.2000,0.00242861
790.0000,0.00275233
789.8000,0.00273133
789.6000,0.0023163
789.4000,0.00212613
789.2000,0.00259232
789.0000,0.00286315
788.8000,0.00255413
788.6000,0.00249976
788.4000,0.00267066
788.2000,0.00272092
788.0000,0.00250333
787.8000,0.00251011
787.6000,0.00265787
787.4000,0.00258262
787.2000,0.00266971
787.0000,0.00287743
786.8000,0.00278463
786.6000,0.00268357
786.4000,0.0027581
786.2000,0.00263229
786.0000,0.00269148
785.8000,0.00291074
785.6000,0.0028227
785.4000,0.00280611
785.2000,0.00268493
785.0000,0.00243516
784.8000,0.0025527
784.6000,0.00247745
784.4000,0.00255187
784.2000,0.0025452
784.0000,0.00251046
783.8000,0.00259844
783.6000,0.0026029
783.4000,0.00290884
783.2000,0.00261629
783.0000,0.00239542
782.8000,0.00273556
782.6000,0.00260023
782.4000,0.00257947
782.2000,0.00257173
782.0000,0.00248726
781.8000,0.00255145
781.6000,0.00270754
781.4000,0.00262033
781.2000,0.00259898
781.0000,0.00269981
780.8000,0.00258619
780.6000,0.00286529
780.4000,0.00281229
780.2000,0.00247757
780.0000,0.00236157
779.8000,0.00252867
779.6000,0.00253741
779.4000,0.002553
779.2000,0.00280218
779.0000,0.00272717
778.8000,0.00265757
778.6000,0.00256757
778.4000,0.00279064
778.2000,0.00327925
778.0000,0.00325873
777.8000,0.00269523
777.6000,0.00227758
777.4000,0.00237341
777.2000,0.00254491
777.0000,0.0027719
776.8000,0.00286
776.6000,0.00275352
776.4000,0.00295351
776.2000,0.00315731
776.0000,0.00291764
775.8000,0.00292942
775.6000,0.00319026
775.4000,0.00316706
775.2000,0.00284406
775.0000,0.00270189
774.8000,0.00289046
774.6000,0.0026261
774.4000,0.00263437
774.2000,0.00279647
774.0000,0.00270355
773.8000,0.00272515
773.6000,0.00272366
773.4000,0.00252147
773.2000,0.0024182
773.0000,0.00269047
772.8000,0.00276423
772.6000,0.00280313
772.4000,0.00270564
772.2000,0.00273002
772.0000,0.00268636
771.8000,0.00271944
771.6000,0.00306166
771.4000,0.00282865
771.2000,0.00249149
771.0000,0.00254865
770.8000,0.00252896
770.6000,0.00262474
770.4000,0.00276744
770.2000,0.00255758
770.0000,0.00275715
769.8000,0.00272604
769.6000,0.00279385
769.4000,0.00294542
769.2000,0.00262682
769.0000,0.00254282
768.8000,0.00260225
768.6000,0.00280646
768.4000,0.00288647
768.2000,0.00280402
768.0000,0.00296011
767.8000,0.00294578
767.6000,0.00287333
767.4000,0.00291943
767.2000,0.00289224
767.0000,0.00249726
766.8000,0.00243819
766.6000,0.00280301
766.4000,0.00283222
766.2000,0.00279076
766.0000,0.00264312
765.8000,0.00280391
765.6000,0.0029826
765.4000,0.00289516
765.2000,0.00279534
765.0000,0.00286196
764.8000,0.00293269
764.6000,0.00286869
764.4000,0.00295678
764.2000,0.00313256
764.0000,0.00291253
763.8000,0.00263568
763.6000,0.002622
763.4000,0.00284537
763.2000,0.00292282
763.0000,0.00284911
762.8000,0.00308747
762.6000,0.00288034
762.4000,0.0027653
762.2000,0.00301157
762.0000,0.00283258
761.8000,0.0025621
761.6000,0.00262652
761.4000,0.00282241
761.2000,0.00303185
761.0000,0.00321269
760.8000,0.00313381
760.6000,0.00295768
760.4000,0.00285019
760.2000,0.00289682
760.0000,0.00267738
759.8000,0.00242558
759.6000,0.00276946
759.4000,0.00296761
759.2000,0.00295024
759.0000,0.00298783
758.8000,0.00268434
758.6000,0.00262527
758.4000,0.00284531
758.2000,0.00287273
758.0000,0.00281295
757.8000,0.00283424
757.6000,0.00281669
757.4000,0.00264948
757.2000,0.00256126
757.0000,0.0028001
756.8000,0.00294869
756.6000,0.00296362
756.4000,0.00312287
756.2000,0.0031325
756.0000,0.00282401
755.8000,0.00280611
755.6000,0.00301698
755.4000,0.00310437
755.2000,0.00340049
755.0000,0.00319258
754.8000,0.00274055
754.6000,0.00270653
754.4000,0.00278166
754.2000,0.00280676
754.0000,0.00253277
753.8000,0.00256216
753.6000,0.00281562
753.4000,0.00298778
753.2000,0.00300259
753.0000,0.00276708
752.8000,0.0026681
752.6000,0.00258244
752.4000,0.00261427
752.2000,0.00267815
752.0000,0.00296017
751.8000,0.00310353
751.6000,0.00291508
751.4000,0.00261367
751.2000,0.0025408
751.0000,0.00276905
750.8000,0.00311912
750.6000,0.00322209
750.4000,0.00297332
750.2000,0.0028296
750.0000,0.00292508
749.8000,0.00301746
749.6000,0.00286321
749.4000,0.00280932
749.2000,0.00280176
749.0000,0.00269772
748.8000,0.00287338
748.6000,0.00294084
748.4000,0.00267934
748.2000,0.0027678
748.0000,0.00280623
747.8000,0.0027697
747.6000,0.00279135
747.4000,0.00254693
747.2000,0.00283234
747.0000,0.00324154
746.8000,0.00313863
746.6000,0.00283151
746.4000,0.00290021
746.2000,0.00296547
746.0000,0.00295595
745.8000,0.00284346
745.6000,0.0028716
745.4000,0.0033598
745.2000,0.00333458
745.0000,0.00292573
744.8000,0.00280902
744.6000,0.00274817
744.4000,0.00268547
744.2000,0.00285482
744.0000,0.00316076
743.8000,0.00317111
743.6000,0.00296725
743.4000,0.00311115
743.2000,0.00285227
743.0000,0.00244562
742.8000,0.00268815
742.6000,0.00315862
742.4000,0.0032626
742.2000,0.00309991
742.0000,0.00294953
741.8000,0.0027258
741.6000,0.00274055
741.4000,0.00288933
741.2000,0.00277702
741.0000,0.00299331
740.8000,0.0029368
740.6000,0.00272848
740.4000,0.00291847
740.2000,0.0032024
740.0000,0.00313078
739.8000,0.00326629
739.6000,0.00300729
739.4000,0.00300681
739.2000,0.00303423
739.0000,0.00289099
738.8000,0.00289991
738.6000,0.00289075
738.4000,0.00292085
738.2000,0.00304678
738.0000,0.0029945
737.8000,0.00294988
737.6000,0.00289462
737.4000,0.00283573
737.2000,0.00308848
737.0000,0.00328972
736.8000,0.00331709
736.6000,0.00327592
736.4000,0.00310639
736.2000,0.00300984
736.0000,0.0029666
735.8000,0.00295066
735.6000,0.00309312
735.4000,0.00323
735.2000,0.00311293
735.0000,0.00277666
734.8000,0.00284584
734.6000,0.00295536
734.4000,0.00294382
734.2000,0.00294762
734.0000,0.00289093
733.8000,0.0028233
733.6000,0.00283638
733.4000,0.00295946
733.2000,0.00295887
733.0000,0.00301847
732.8000,0.00311585
732.6000,0.00302097
732.4000,0.00305827
732.2000,0.00312447
732.0000,0.00300604
731.8000,0.00299146
731.6000,0.00299688
731.4000,0.00290461
731.2000,0.00303132
731.0000,0.00329103
730.8000,0.00322256
730.6000,0.00322227
730.4000,0.00331316
730.2000,0.00327747
730.0000,0.00318479
729.8000,0.00329186
729.6000,0.00330751
729.4000,0.00322792
729.2000,0.0031118
729.0000,0.00272622
728.8000,0.00266138
728.6000,0.00292175
728.4000,0.00298789
728.2000,0.00307195
728.0000,0.00334374
727.8000,0.00337508
727.6000,0.00309235
727.4000,0.00294732
727.2000,0.00327598
727.0000,0.00333368
726.8000,0.00303477
726.6000,0.00297261
726.4000,0.00307623
726.2000,0.00297641
726.0000,0.00298593
725.8000,0.00303875
725.6000,0.00289153
725.4000,0.00321334
725.2000,0.00343148
725.0000,0.00321477
724.8000,0.00305523
724.6000,0.00296434
724.4000,0.00310419
724.2000,0.0031679
724.0000,0.00320466
723.8000,0.00315713
723.6000,0.00298819
723.4000,0.00308004
723.2000,0.00317521
723.0000,0.00312816
722.8000,0.00313108
722.6000,0.00323761
722.4000,0.00328163
722.2000,0.00323892
722.0000,0.00319889
721.8000,0.00316141
721.6000,0.00322173
721.4000,0.00319942
721.2000,0.00306903
721.0000,0.00305006
720.8000,0.00293067
720.6000,0.00283228
720.4000,0.00285822
720.2000,0.00283882
720.0000,0.00309872
719.8000,0.00336033
719.6000,0.00324202
719.4000,0.00325534
719.2000,0.00332167
719.0000,0.00309425
718.8000,0.00296511
718.6000,0.00320829
718.4000,0.00318277
718.2000,0.0032328
718.0000,0.00337455
717.8000,0.00335135
717.6000,0.00334136
717.4000,0.00340495
717.2000,0.00333083
717.0000,0.00334998
716.8000,0.00337865
716.6000,0.00338472
716.4000,0.00350369
716.2000,0.00346871
716.0000,0.00328984
715.8000,0.00301746
715.6000,0.00323512
715.4000,0.00339239
715.2000,0.00325826
715.0000,0.00339602
714.8000,0.00325147
714.6000,0.00305981
714.4000,0.00336836
714.2000,0.00329222
714.0000,0.00321108
713.8000,0.00336081
713.6000,0.00326046
713.4000,0.00326397
713.2000,0.00326807
713.0000,0.00307308
712.8000,0.00298438
712.6000,0.00337842
712.4000,0.00355741
712.2000,0.00332773
712.0000,0.00329127
711.8000,0.00334457
711.6000,0.00338972
711.4000,0.00322328
711.2000,0.00327979
711.0000,0.00335456
710.8000,0.00310562
710.6000,0.00299943
710.4000,0.00303263
710.2000,0.00308604
710.0000,0.00321049
709.8000,0.00336896
709.6000,0.00339834
709.4000,0.00324047
709.2000,0.00328984
709.0000,0.00329668
708.8000,0.00323125
708.6000,0.00316171
708.4000,0.00320377
708.2000,0.00337282
708.0000,0.00332381
707.8000,0.00328122
707.6000,0.00331411
707.4000,0.0033658
707.2000,0.00318616
707.0000,0.00322435
706.8000,0.0033482
706.6000,0.00328383
706.4000,0.00337675
706.2000,0.00324981
706.0000,0.00310948
705.8000,0.00323345
705.6000,0.00336301
705.4000,0.00331274
705.2000,0.0034545
705.0000,0.00332767
704.8000,0.00306975
704.6000,0.00329906
704.4000,0.00339822
704.2000,0.00343606
704.0000,0.00346568
703.8000,0.00346842
703.6000,0.00343023
703.4000,0.00322387
703.2000,0.00310145
703.0000,0.00350429
702.8000,0.00378779
702.6000,0.00336598
702.4000,0.00320728
702.2000,0.00340715
702.0000,0.00320829
701.8000,0.00328859
701.6000,0.00353689
701.4000,0.00338127
701.2000,0.0032767
701.0000,0.00340631
700.8000,0.00336289
700.6000,0.00322762
700.4000,0.00335498
700.2000,0.00329472
700.0000,0.00330483
699.8000,0.00336908
699.6000,0.00321703
699.4000,0.00331393
699.2000,0.00348763
699.0000,0.0034445
698.8000,0.00340251
698.6000,0.00338514
698.4000,0.00339412
698.2000,0.00328621
698.0000,0.00322673
697.8000,0.00315725
697.6000,0.00313583
697.4000,0.00325498
697.2000,0.00321305
697.0000,0.00324487
696.8000,0.00337413
696.6000,0.00361796
696.4000,0.00356776
696.2000,0.00339132
696.0000,0.00341006
695.8000,0.00339632
695.6000,0.0034564
695.4000,0.00354652
695.2000,0.00344242
695.0000,0.00342357
694.8000,0.00336955
694.6000,0.00331405
694.4000,0.0034128
694.2000,0.0034338
694.0000,0.00350072
693.8000,0.00343986
693.6000,0.00348454
693.4000,0.00351327
693.2000,0.00343076
693.0000,0.00342017
692.8000,0.00344581
692.6000,0.00343653
692.4000,0.00353177
692.2000,0.00359102
692.0000,0.00342624
691.8000,0.0034178
691.6000,0.00359131
691.4000,0.00366722
691.2000,0.00343624
691.0000,0.00334439
690.8000,0.00336021
690.6000,0.00359405
690.4000,0.00365116
690.2000,0.00343314
690.0000,0.00341208
689.8000,0.0033062
689.6000,0.00344617
689.4000,0.00349804
689.2000,0.00351731
689.0000,0.0035627
688.8000,0.00371136
688.6000,0.00369845
688.4000,0.00356853
688.2000,0.00351666
688.0000,0.00354093
687.8000,0.0038753
687.6000,0.00385549
687.4000,0.00366627
687.2000,0.00344385
687.0000,0.00337485
686.8000,0.00357299
686.6000,0.00361731
686.4000,0.00363289
686.2000,0.0034931
686.0000,0.00337669
685.8000,0.00336664
685.6000,0.00351202
685.4000,0.00363385
685.2000,0.00371873
685.0000,0.00375692
684.8000,0.00353909
684.6000,0.00353837
684.4000,0.00358364
684.2000,0.00344557
684.0000,0.00351315
683.8000,0.00368726
683.6000,0.00350161
683.4000,0.00343766
683.2000,0.00342434
683.0000,0.00341898
682.8000,0.00358025
682.6000,0.00344373
682.4000,0.0034724
682.2000,0.00368572
682.0000,0.00372206
681.8000,0.00358953
681.6000,0.00345081
681.4000,0.00347579
681.2000,0.00364872
681.0000,0.00392628
680.8000,0.00395197
680.6000,0.00373789
680.4000,0.00348846
680.2000,0.00346568
680.0000,0.00364777
679.8000,0.00369381
679.6000,0.00371088
679.4000,0.00376935
679.2000,0.00371915
679.0000,0.00351642
678.8000,0.00351202
678.6000,0.00379987
678.4000,0.00385127
678.2000,0.00388541
678.0000,0.0038452
677.8000,0.00366531
677.6000,0.00376317
677.4000,0.00379392
677.2000,0.00345075
677.0000,0.00348626
676.8000,0.00386465
676.6000,0.00389195
676.4000,0.0038054
676.2000,0.00370606
676.0000,0.00381111
675.8000,0.0039421
675.6000,0.00381302
675.4000,0.00382902
675.2000,0.00382474
675.0000,0.00361695
674.8000,0.00378904
674.6000,0.00376519
674.4000,0.0036342
674.2000,0.00387952
674.0000,0.00375145
673.8000,0.00366085
673.6000,0.00387845
673.4000,0.00395001
673.2000,0.00384371
673.0000,0.00354057
672.8000,0.00375062
672.6000,0.00404352
672.4000,0.00397678
672.2000,0.0040208
672.0000,0.00377792
671.8000,0.0037082
671.6000,0.00367917
671.4000,0.00347526
671.2000,0.00353974
671.0000,0.00363706
670.8000,0.00393074
670.6000,0.00406482
670.4000,0.00398154
670.2000,0.00385858
670.0000,0.00364604
669.8000,0.00367745
669.6000,0.00387328
669.4000,0.00371992
669.2000,0.00359459
669.0000,0.0038562
668.8000,0.00406863
668.6000,0.00394317
668.4000,0.00365883
668.2000,0.00376959
668.0000,0.00393918
667.8000,0.00401182
667.6000,0.00400034
667.4000,0.00375079
667.2000,0.00358721
667.0000,0.00365461
666.8000,0.00387113
666.6000,0.00405881
666.4000,0.00381885
666.2000,0.00362474
666.0000,0.00381141
665.8000,0.00395394
665.6000,0.00386423
665.4000,0.00392158
665.2000,0.00395322
665.0000,0.00368138
664.8000,0.00346461
664.6000,0.00354111
664.4000,0.00377851
664.2000,0.00387964
664.0000,0.00372748
663.8000,0.00366258
663.6000,0.00381837
663.4000,0.00401455
663.2000,0.00387857
663.0000,0.0038377
662.8000,0.00404055
662.6000,0.00400093
662.4000,0.00397404
662.2000,0.00407368
662.0000,0.00396482
661.8000,0.00373557
661.6000,0.00372652
661.4000,0.00389737
661.2000,0.00413067
661.0000,0.00411907
660.8000,0.00402413
660.6000,0.00405709
660.4000,0.004182
660.2000,0.00398957
660.0000,0.00387197
659.8000,0.00384716
659.6000,0.0037364
659.4000,0.00384442
659.2000,0.00402229
659.0000,0.00391866
658.8000,0.00382485
658.6000,0.00396702
658.4000,0.00401681
658.2000,0.00411163
658.0000,0.00405013
657.8000,0.0040788
657.6000,0.00413501
657.4000,0.00420158
657.2000,0.00417374
657.0000,0.00394501
656.8000,0.00381891
656.6000,0.00394388
656.4000,0.00395673
656.2000,0.00364491
656.0000,0.00375389
655.8000,0.00389308
655.6000,0.00392544
655.4000,0.00382652
655.2000,0.00370779
655.0000,0.00364675
654.8000,0.0036941
654.6000,0.00403139
654.4000,0.00412847
654.2000,0.004012
654.0000,0.00389261
653.8000,0.00399706
653.6000,0.00424435
653.4000,0.00407856
653.2000,0.00379832
653.0000,0.00382694
652.8000,0.00392883
652.6000,0.00412674
652.4000,0.00406631
652.2000,0.0038076
652.0000,0.00377738
651.8000,0.00392913
651.6000,0.00414423
651.4000,0.00401586
651.2000,0.00384401
651.0000,0.00399689
650.8000,0.0041544
650.6000,0.00417534
650.4000,0.00419295
650.2000,0.00413971
650.0000,0.00431109
649.8000,0.00429312
649.6000,0.0040716
649.4000,0.00417736
649.2000,0.0043234
649.0000,0.00414911
648.8000,0.00402419
648.6000,0.00430175
648.4000,0.00417076
648.2000,0.00399683
648.0000,0.00410908
647.8000,0.00411824
647.6000,0.00420675
647.4000,0.00408546
647.2000,0.00403704
647.0000,0.0042613
646.8000,0.00410402
646.6000,0.00412002
646.4000,0.00445546
646.2000,0.00418581
646.0000,0.00390938
645.8000,0.00423459
645.6000,0.00417374
645.4000,0.00408171
645.2000,0.0041782
645.0000,0.004086
644.8000,0.00419842
644.6000,0.00414263
644.4000,0.00387964
644.2000,0.00407213
644.0000,0.00440329
643.8000,0.00407118
643.6000,0.00374699
643.4000,0.00394091
643.2000,0.00415559
643.0000,0.00413953
642.8000,0.00409694
642.6000,0.00402395
642.4000,0.00413805
642.2000,0.00426659
642.0000,0.00408308
641.8000,0.00391878
641.6000,0.0040528
641.4000,0.00419378
641.2000,0.00410438
641.0000,0.00429146
640.8000,0.00413501
640.6000,0.00382105
640.4000,0.00406672
640.2000,0.00427302
640.0000,0.00418754
639.8000,0.00397244
639.6000,0.00403793
639.4000,0.00407743
639.2000,0.00411336
639.0000,0.00421674
638.8000,0.00405352
638.6000,0.00398594
638.4000,0.00420027
638.2000,0.00444642
638.0000,0.00435154
637.8000,0.00440008
637.6000,0.0043955
637.4000,0.00417677
637.2000,0.00410241
637.0000,0.00414066
636.8000,0.00406167
636.6000,0.00414316
636.4000,0.00425095
636.2000,0.00402954
636.0000,0.0038916
635.8000,0.00410854
635.6000,0.00433809
635.4000,0.00437718
635.2000,0.00438729
635.0000,0.00423054
634.8000,0.00429348
634.6000,0.00433851
634.4000,0.00437688
634.2000,0.00433869
634.0000,0.00429538
633.8000,0.00424904
633.6000,0.00410021
633.4000,0.00424512
633.2000,0.00438289
633.0000,0.00435832
632.8000,0.00421133
632.6000,0.00414054
632.4000,0.00406196
632.2000,0.00417516
632.0000,0.00435683
631.8000,0.00436766
631.6000,0.00444261
631.4000,0.00439443
631.2000,0.00437896
631.0000,0.00431733
630.8000,0.00445421
630.6000,0.00457479
630.4000,0.00451233
630.2000,0.00442262
630.0000,0.00427528
629.8000,0.00446759
629.6000,0.00450876
629.4000,0.00433024
629.2000,0.00442988
629.0000,0.00420818
628.8000,0.00403847
628.6000,0.00411627
628.4000,0.00409254
628.2000,0.00439163
628.0000,0.00457056
627.8000,0.00463528
627.6000,0.0045112
627.4000,0.00435927
627.2000,0.00440472
627.0000,0.00443149
626.8000,0.00449139
626.6000,0.00451132
626.4000,0.0044065
626.2000,0.00434184
626.0000,0.00436665
625.8000,0.00427712
625.6000,0.00431382
625.4000,0.00460816
625.2000,0.00468579
625.0000,0.00450781
624.8000,0.00441114
624.6000,0.00427784
624.4000,0.00429134
624.2000,0.00432227
624.0000,0.00434535
623.8000,0.00472404
623.6000,0.0047934
623.4000,0.00448907
623.2000,0.00446926
623.0000,0.00441709
622.8000,0.00434553
622.6000,0.0045899
622.4000,0.0045407
622.2000,0.00438586
622.0000,0.00446843
621.8000,0.00446855
621.6000,0.00472243
621.4000,0.0047351
621.2000,0.00431067
621.0000,0.00425547
620.8000,0.00447081
620.6000,0.00478792
620.4000,0.00483337
620.2000,0.00455694
620.0000,0.00442578
619.8000,0.00428979
619.6000,0.00447967
619.4000,0.00466901
619.2000,0.00458639
619.0000,0.00438901
618.8000,0.00430728
618.6000,0.00437075
618.4000,0.0044535
618.2000,0.00474985
618.0000,0.00479518
617.8000,0.00463451
617.6000,0.00462434
617.4000,0.00464105
617.2000,0.00451774
617.0000,0.00455319
616.8000,0.00463118
616.6000,0.00483194
616.4000,0.00484646
616.2000,0.00437379
616.0000,0.00426517
615.8000,0.00449823
615.6000,0.00474503
615.4000,0.00457485
615.2000,0.00467698
615.0000,0.00492456
614.8000,0.00469626
614.6000,0.00462904
614.4000,0.00469923
614.2000,0.00462416
614.0000,0.00438396
613.8000,0.00446242
613.6000,0.00465093
613.4000,0.00461524
613.2000,0.00478858
613.0000,0.00465664
612.8000,0.00456884
612.6000,0.0047555
612.4000,0.00478031
612.2000,0.00479221
612.0000,0.0045993
611.8000,0.00473653
611.6000,0.00487031
611.4000,0.00456973
611.2000,0.00469251
611.0000,0.0049082
610.8000,0.00497566
610.6000,0.00484723
610.4000,0.00474182
610.2000,0.00475544
610.0000,0.00454112
609.8000,0.00468394
609.6000,0.00482534
609.4000,0.00487447
609.2000,0.00481071
609.0000,0.00463659
608.8000,0.00468097
608.6000,0.00484717
608.4000,0.00484396
608.2000,0.00467787
608.0000,0.00487882
607.8000,0.00506304
607.6000,0.00491879
607.4000,0.00472921
607.2000,0.00451602
607.0000,0.00459876
606.8000,0.00486555
606.6000,0.00480196
606.4000,0.00465628
606.2000,0.00470524
606.0000,0.00474051
605.8000,0.00468299
605.6000,0.00488661
605.4000,0.00470565
605.2000,0.00446498
605.0000,0.00469536
604.8000,0.00463826
604.6000,0.00476139
604.4000,0.00506292
604.2000,0.00514936
604.0000,0.00496001
603.8000,0.00479268
603.6000,0.00503056
603.4000,0.00514031
603.2000,0.00499695
603.0000,0.00491653
602.8000,0.00486222
602.6000,0.00479328
602.4000,0.00494128
602.2000,0.00504936
602.0000,0.00487775
601.8000,0.00487555
601.6000,0.00494966
601.4000,0.00496941
601.2000,0.00511075
601.0000,0.00504431
600.8000,0.00500552
600.6000,0.00490404
600.4000,0.0049414
600.2000,0.0051785
600.0000,0.00516435
599.8000,0.00508321
599.6000,0.00508922
599.4000,0.00505704
599.2000,0.0049477
599.0000,0.00491469
598.8000,0.00499035
598.6000,0.00513205
598.4000,0.00509457
598.2000,0.00514382
598.0000,0.00519754
597.8000,0.00517149
597.6000,0.00521895
597.4000,0.00515239
597.2000,0.00517791
597.0000,0.00536838
596.8000,0.00530842
596.6000,0.00510944
596.4000,0.00512538
596.2000,0.00512669
596.0000,0.00514745
595.8000,0.00551418
595.6000,0.00530681
595.4000,0.00505341
595.2000,0.00524132
595.0000,0.00515566
594.8000,0.00512681
594.6000,0.00507161
594.4000,0.00512515
594.2000,0.00526345
594.0000,0.00521158
593.8000,0.00519106
593.6000,0.00509606
593.4000,0.00499089
593.2000,0.00496001
593.0000,0.00517333
592.8000,0.00555594
592.6000,0.00552899
592.4000,0.00531056
592.2000,0.00519058
592.0000,0.00514924
591.8000,0.00518737
591.6000,0.00538361
591.4000,0.00551846
591.2000,0.00539289
591.0000,0.00528225
590.8000,0.00538081
590.6000,0.0054453
590.4000,0.00523775
590.2000,0.0052189
590.0000,0.00524816
589.8000,0.00512651
589.6000,0.00515578
589.4000,0.00532829
589.2000,0.00533912
589.0000,0.00529867
588.8000,0.00517731
588.6000,0.00512574
588.4000,0.0052594
588.2000,0.00518178
588.0000,0.00517036
587.8000,0.00521104
587.6000,0.00547278
587.4000,0.00563101
587.2000,0.00533775
587.0000,0.00533346
586.8000,0.00537986
586.6000,0.00520878
586.4000,0.00527796
586.2000,0.00545648
586.0000,0.00569537
585.8000,0.00553072
585.6000,0.00541371
585.4000,0.00542174
585.2000,0.00527273
585.0000,0.00506786
584.8000,0.00530099
584.6000,0.0055883
584.4000,0.00540146
584.2000,0.00543637
584.0000,0.0055137
583.8000,0.00541193
583.6000,0.00562899
583.4000,0.00562631
583.2000,0.00545594
583.0000,0.00549568
582.8000,0.00543739
582.6000,0.00540009
582.4000,0.005424
582.2000,0.00544191
582.0000,0.00550734
581.8000,0.00553107
581.6000,0.00550347
581.4000,0.0055742
581.2000,0.0054754
581.0000,0.00556189
580.8000,0.0054955
580.6000,0.0053945
580.4000,0.00530592
580.2000,0.00537029
580.0000,0.00570465
579.8000,0.00584611
579.6000,0.00585242
579.4000,0.00569514
579.2000,0.00548634
579.0000,0.00542049
578.8000,0.00551995
578.6000,0.00548747
578.4000,0.00539949
578.2000,0.00554797
578.0000,0.00568818
577.8000,0.00587341
577.6000,0.0058476
577.4000,0.00581809
577.2000,0.00574558
577.0000,0.00575974
576.8000,0.00591339
576.6000,0.00584427
576.4000,0.00580489
576.2000,0.00586984
576.0000,0.00593671
575.8000,0.00567878
575.6000,0.00553203
575.4000,0.00575569
575.2000,0.00577842
575.0000,0.00570382
574.8000,0.00564779
574.6000,0.00555475
574.4000,0.00560906
574.2000,0.00581732
574.0000,0.00594069
573.8000,0.00594384
573.6000,0.00596425
573.4000,0.00595812
573.2000,0.00610011
573.0000,0.00616001
572.8000,0.00598293
572.6000,0.00587591
572.4000,0.00584421
572.2000,0.00586217
572.0000,0.00581666
571.8000,0.00575766
571.6000,0.00576539
571.4000,0.00590066
571.2000,0.00600226
571.0000,0.00590607
570.8000,0.0060502
570.6000,0.0060969
570.4000,0.00595271
570.2000,0.00589638
570.0000,0.00584843
569.8000,0.00606014
569.6000,0.00617655
569.4000,0.00589929
569.2000,0.00583659
569.0000,0.00604503
568.8000,0.00628172
568.6000,0.00609428
568.4000,0.00591208
568.2000,0.0059768
568.0000,0.00592362
567.8000,0.00593076
567.6000,0.00613563
567.4000,0.00615549
567.2000,0.00610005
567.0000,0.0060257
566.8000,0.00601624
566.6000,0.00599179
566.4000,0.0060458
566.2000,0.00630474
566.0000,0.00629332
565.8000,0.00638005
565.6000,0.00629314
565.4000,0.00604664
565.2000,0.00609232
565.0000,0.00607031
564.8000,0.00604747
564.6000,0.00603831
564.4000,0.00612533
564.2000,0.0061019
564.0000,0.00603676
563.8000,0.0061242
563.6000,0.00622914
563.4000,0.00615448
563.2000,0.00593135
563.0000,0.00604426
562.8000,0.00598977
562.6000,0.00582398
562.4000,0.00578645
562.2000,0.0059467
562.0000,0.00627928
561.8000,0.00621694
561.6000,0.00608066
561.4000,0.00618018
561.2000,0.00621343
561.0000,0.00620974
560.8000,0.00618411
560.6000,0.00616073
560.4000,0.00625507
560.2000,0.00633234
560.0000,0.0060229
559.8000,0.00606287
559.6000,0.00632574
559.4000,0.00640837
559.2000,0.0064117
559.0000,0.00605633
558.8000,0.0059329
558.6000,0.00623681
558.4000,0.00634121
558.2000,0.00627042
558.0000,0.00642383
557.8000,0.00647326
557.6000,0.00629195
557.4000,0.00627512
557.2000,0.00648451
557.0000,0.00654548
556.8000,0.00645054
556.6000,0.00663239
556.4000,0.00669235
556.2000,0.00642544
556.0000,0.00620909
555.8000,0.00624216
555.6000,0.00646868
555.4000,0.00651835
555.2000,0.0064763
555.0000,0.0064835
554.8000,0.00649837
554.6000,0.00668813
554.4000,0.00646095
554.2000,0.00644929
554.0000,0.00674018
553.8000,0.00656208
553.6000,0.00637809
553.4000,0.00642871
553.2000,0.00650164
553.0000,0.00639558
552.8000,0.00630004
552.6000,0.00638659
552.4000,0.00667754
552.2000,0.00676909
552.0000,0.00673982
551.8000,0.00680751
551.6000,0.00663852
551.4000,0.00649426
551.2000,0.00651675
551.0000,0.00652769
550.8000,0.00669973
550.6000,0.00663435
550.4000,0.00656261
550.2000,0.00669437
550.0000,0.00661674
549.8000,0.00642788
549.6000,0.00653251
549.4000,0.00673518
549.2000,0.00660288
549.0000,0.00660627
548.8000,0.00685909
548.6000,0.00700887
548.4000,0.00679008
548.2000,0.00653043
548.0000,0.00660889
547.8000,0.00680317
547.6000,0.00686093
547.4000,0.00676183
547.2000,0.0069752
547.0000,0.00721909
546.8000,0.00713177
546.6000,0.0069645
546.4000,0.00700233
546.2000,0.00679758
546.0000,0.00660764
545.8000,0.00664476
545.6000,0.00667397
545.4000,0.00672661
545.2000,0.00688806
545.0000,0.00693237
544.8000,0.00677843
544.6000,0.00663465
544.4000,0.0067002
544.2000,0.00701738
544.0000,0.00695337
543.8000,0.00687515
543.6000,0.00702838
543.4000,0.00705878
543.2000,0.00703671
543.0000,0.00685123
542.8000,0.00694909
542.6000,0.0070915
542.4000,0.00698906
542.2000,0.00723831
542.0000,0.00718887
541.8000,0.00710018
541.6000,0.00696693
541.4000,0.00682827
541.2000,0.00702832
541.0000,0.00718554
540.8000,0.00717698
540.6000,0.00710161
540.4000,0.00704688
540.2000,0.0072925
540.0000,0.00731373
539.8000,0.00709899
539.6000,0.00722147
539.4000,0.00715425
539.2000,0.00712921
539.0000,0.00715967
538.8000,0.00718138
538.6000,0.00729892
538.4000,0.00715045
538.2000,0.00699489
538.0000,0.00706663
537.8000,0.00721308
537.6000,0.00726163
537.4000,0.0073869
537.2000,0.00743746
537.0000,0.00738464
536.8000,0.00746251
536.6000,0.00746852
536.4000,0.00736608
536.2000,0.00716431
536.0000,0.00736983
535.8000,0.00758885
535.6000,0.00748797
535.4000,0.00750331
535.2000,0.00741468
535.0000,0.00755162
534.8000,0.00767005
534.6000,0.00753514
534.4000,0.00747631
534.2000,0.00748368
534.0000,0.00754906
533.8000,0.00762395
533.6000,0.00769694
533.4000,0.00781484
533.2000,0.0077622
533.0000,0.00735609
532.8000,0.00731712
532.6000,0.00770586
532.4000,0.00763246
532.2000,0.00746661
532.0000,0.00754299
531.8000,0.00764959
531.6000,0.00772615
531.4000,0.00771931
531.2000,0.00783822
531.0000,0.00778914
530.8000,0.00772436
530.6000,0.00776017
530.4000,0.00771074
530.2000,0.00782275
530.0000,0.00797747
529.8000,0.00788265
529.6000,0.00781996
529.4000,0.00787629
529.2000,0.00785273
529.0000,0.00754109
528.8000,0.00762074
528.6000,0.00761134
528.4000,0.00751515
528.2000,0.00764739
528.0000,0.00778783
527.8000,0.00814707
527.6000,0.00826836
527.4000,0.00817937
527.2000,0.0080965
527.0000,0.00808794
526.8000,0.00796677
526.6000,0.00795291
526.4000,0.00802399
526.2000,0.00798009
526.0000,0.00817217
525.8000,0.00841433
525.6000,0.00831142
525.4000,0.00828775
525.2000,0.00830726
525.0000,0.00818204
524.8000,0.00816598
524.6000,0.00814124
524.4000,0.00820738
524.2000,0.00832439
524.0000,0.00828614
523.8000,0.00843593
523.6000,0.00847227
523.4000,0.00837198
523.2000,0.00843063
523.0000,0.00843563
522.8000,0.00848488
522.6000,0.00848114
522.4000,0.00865501
522.2000,0.0086443
522.0000,0.00811905
521.8000,0.008252
521.6000,0.00843616
521.4000,0.00824129
521.2000,0.00854853
521.0000,0.00869701
520.8000,0.00848203
520.6000,0.00825539
520.4000,0.00834753
520.2000,0.00862247
520.0000,0.00861718
519.8000,0.00865513
519.6000,0.00877838
519.4000,0.00854461
519.2000,0.00851165
519.0000,0.00874317
518.8000,0.00861635
518.6000,0.00854122
518.4000,0.00863681
518.2000,0.00866507
518.0000,0.00882395
517.8000,0.00873496
517.6000,0.00866167
517.4000,0.00885738
517.2000,0.0088274
517.0000,0.00883948
516.8000,0.0089876
516.6000,0.0091074
516.4000,0.00906112
516.2000,0.00895113
516.0000,0.00878076
515.8000,0.00885607
515.6000,0.00890336
515.4000,0.00912191
515.2000,0.00920347
515.0000,0.00919437
514.8000,0.00923202
514.6000,0.00921316
514.4000,0.00930709
514.2000,0.00942321
514.0000,0.00960172
513.8000,0.0094677
513.6000,0.00910538
513.4000,0.00914166
513.2000,0.00942838
513.0000,0.00948103
512.8000,0.00942124
512.6000,0.00937157
512.4000,0.00930727
512.2000,0.00935789
512.0000,0.00941185
511.8000,0.00945462
511.6000,0.00984002
511.4000,0.00985198
511.2000,0.00989433
511.0000,0.00984091
510.8000,0.00981593
510.6000,0.0101808
510.4000,0.0102319
510.2000,0.00999367
510.0000,0.0100899
509.8000,0.0101328
509.6000,0.0101846
509.4000,0.00994204
509.2000,0.0100299
509.0000,0.0102619
508.8000,0.0101351
508.6000,0.0101381
508.4000,0.0102162
508.2000,0.0103926
508.0000,0.0103813
507.8000,0.0104102
507.6000,0.0107092
507.4000,0.0108029
507.2000,0.010878
507.0000,0.0108377
506.8000,0.0106541
506.6000,0.010995
506.4000,0.0110994
506.2000,0.0109364
506.0000,0.0109594
505.8000,0.0111987
505.6000,0.0112584
505.4000,0.0110525
505.2000,0.0113135
505.0000,0.0113815
504.8000,0.0112793
504.6000,0.0112599
504.4000,0.0113346
504.2000,0.0115222
504.0000,0.0116755
503.8000,0.0117694
503.6000,0.0117421
503.4000,0.0118581
503.2000,0.0117678
503.0000,0.0116913
502.8000,0.0119217
502.6000,0.0120767
502.4000,0.0121901
502.2000,0.0122113
502.0000,0.0119973
501.8000,0.0119128
501.6000,0.0121462
501.4000,0.0121946
501.2000,0.0122682
501.0000,0.0124067
500.8000,0.0123396
500.6000,0.0125106
500.4000,0.0127154
500.2000,0.0127224
500.0000,0.0128205
499.8000,0.0129408
499.6000,0.0128481
499.4000,0.0127733
499.2000,0.0131219
499.0000,0.0132061
498.8000,0.0130734
498.6000,0.0132857
498.4000,0.0133674
498.2000,0.0134823
498.0000,0.0135267
497.8000,0.0135187
497.6000,0.0136635
497.4000,0.0139707
497.2000,0.0142249
497.0000,0.0141849
496.8000,0.0141657
496.6000,0.0141465
496.4000,0.0142766
496.2000,0.014513
496.0000,0.0146014
495.8000,0.0148259
495.6000,0.0149805
495.4000,0.0150059
495.2000,0.014967
495.0000,0.0149493
494.8000,0.0151643
494.6000,0.0153297
494.4000,0.0155228
494.2000,0.015539
494.0000,0.0156095
493.8000,0.0159577
493.6000,0.0161253
493.4000,0.0159396
493.2000,0.0158949
493.0000,0.016055
492.8000,0.0160425
492.6000,0.0164199
492.4000,0.0168356
492.2000,0.0167058
492.0000,0.0167199
491.8000,0.0168714
491.6000,0.016849
491.4000,0.0168195
491.2000,0.0172567
491.0000,0.0175174
490.8000,0.0175297
490.6000,0.0178799
490.4000,0.0182315
490.2000,0.0181995
490.0000,0.0180494
489.8000,0.0184195
489.6000,0.0185868
489.4000,0.0183669
489.2000,0.0182276
489.0000,0.0183438
488.8000,0.0187988
488.6000,0.0191464
488.4000,0.0190946
488.2000,0.0191012
488.0000,0.0194119
487.8000,0.0194906
487.6000,0.0196317
487.4000,0.0198686
487.2000,0.0199719
487.0000,0.0201539
486.8000,0.020198
486.6000,0.0200611
486.4000,0.0204559
486.2000,0.0208825
486.0000,0.021003
485.8000,0.02108
485.6000,0.021142
485.4000,0.0212841
485.2000,0.0212832
485.0000,0.0217148
484.8000,0.0219451
484.6000,0.0220289
484.4000,0.0221706
484.2000,0.0221216
484.0000,0.0221436
483.8000,0.0226792
483.6000,0.0231262
483.4000,0.0230144
483.2000,0.0231507
483.0000,0.0233091
482.8000,0.023454
482.6000,0.0236292
482.4000,0.0237142
482.2000,0.0239722
482.0000,0.0241945
481.8000,0.0241473
481.6000,0.0243077
481.4000,0.0246859
481.2000,0.0249079
481.0000,0.0252974
480.8000,0.0254345
480.6000,0.0254275
480.4000,0.0258225
480.2000,0.0257839
480.0000,0.0254641
479.8000,0.0258253
479.6000,0.0262247
479.4000,0.0263954
479.2000,0.0267647
479.0000,0.0267994
478.8000,0.0269075
478.6000,0.0270801
478.4000,0.0268747
478.2000,0.0269746
478.0000,0.0271101
477.8000,0.0272732
477.6000,0.0279294
477.4000,0.0281811
477.2000,0.0279467
477.0000,0.0280571
476.8000,0.0284314
476.6000,0.0290014
476.4000,0.0291068
476.2000,0.0288552
476.0000,0.0288388
475.8000,0.0289191
475.6000,0.0291792
475.4000,0.0295379
475.2000,0.0296805
475.0000,0.029948
474.8000,0.0303765
474.6000,0.0302934
474.4000,0.0302301
474.2000,0.0304739
474.0000,0.0306274
473.8000,0.0304935
473.6000,0.0307006
473.4000,0.0310914
473.2000,0.0313966
473.0000,0.031656
472.8000,0.0316808
472.6000,0.0319044
472.4000,0.0319697
472.2000,0.0318203
472.0000,0.0321743
471.8000,0.0324401
471.6000,0.0324152
471.4000,0.0325521
471.2000,0.0327849
471.0000,0.0329033
470.8000,0.0329679
470.6000,0.0330503
470.4000,0.033055
470.2000,0.0333705
470.0000,0.0335001
469.8000,0.0336398
469.6000,0.0340144
469.4000,0.0341838
469.2000,0.034157
469.0000,0.034157
468.8000,0.0343967
468.6000,0.0344105
468.4000,0.0346466
468.2000,0.0349786
468.0000,0.0350188
467.8000,0.0350006
467.6000,0.0351984
467.4000,0.0355755
467.2000,0.0355738
467.0000,0.0354345
466.8000,0.0356945
466.6000,0.0357822
466.4000,0.0358291
466.2000,0.036148
466.0000,0.0361708
465.8000,0.0363018
465.6000,0.0365162
465.4000,0.0366581
465.2000,0.0369575
465.0000,0.0367187
464.8000,0.036595
464.6000,0.0369887
464.4000,0.0372868
464.2000,0.0374539
464.0000,0.0373808
463.8000,0.0375985
463.6000,0.0376884
463.4000,0.0378207
463.2000,0.0380327
463.0000,0.037811
462.8000,0.0378713
462.6000,0.0380922
462.4000,0.0381294
462.2000,0.038225
462.0000,0.0383134
461.8000,0.0387689
461.6000,0.039145
461.4000,0.0389011
461.2000,0.038878
461.0000,0.0390885
460.8000,0.0391973
460.6000,0.0394407
460.4000,0.0397633
460.2000,0.0396531
460.0000,0.0396098
459.8000,0.0398341
459.6000,0.0399232
459.4000,0.0400963
459.2000,0.0402523
459.0000,0.0403195
458.8000,0.0402813
458.6000,0.0404715
458.4000,0.0406548
458.2000,0.0406109
458.0000,0.0407331
457.8000,0.0407854
457.6000,0.0408855
457.4000,0.0411175
457.2000,0.0411446
457.0000,0.04131
456.8000,0.0414576
456.6000,0.0413658
456.4000,0.0415665
456.2000,0.041716
456.0000,0.0415401
455.8000,0.0417381
455.6000,0.042103
455.4000,0.0421424
455.2000,0.0420878
455.0000,0.0420831
454.8000,0.0420356
454.6000,0.04224
454.4000,0.042675
454.2000,0.0429114
454.0000,0.0426766
453.8000,0.0424693
453.6000,0.0427255
453.4000,0.042823
453.2000,0.0427613
453.0000,0.0430994
452.8000,0.0434395
452.6000,0.0431407
452.4000,0.0429638
452.2000,0.0432334
452.0000,0.0434732
451.8000,0.0437734
451.6000,0.0440804
451.4000,0.0441645
451.2000,0.0441487
451.0000,0.0439342
450.8000,0.0439346
450.6000,0.0442863
450.4000,0.0444648
450.2000,0.0443991
450.0000,0.0442996
449.8000,0.0444233
449.6000,0.0445241
449.4000,0.0445661
449.2000,0.0445889
449.0000,0.0444976
448.8000,0.0448779
448.6000,0.0451141
448.4000,0.0451411
448.2000,0.0452268
448.0000,0.045055
447.8000,0.0450558
447.6000,0.0456042
447.4000,0.045943
447.2000,0.0456422
447.0000,0.0458258
446.8000,0.0460867
446.6000,0.045852
446.4000,0.0456315
446.2000,0.0461654
446.0000,0.0462854
445.8000,0.0461686
445.6000,0.0463756
445.4000,0.0462759
445.2000,0.0465564
445.0000,0.046563
444.8000,0.0461772
444.6000,0.0465236
444.4000,0.0467205
444.2000,0.0466745
444.0000,0.0466858
443.8000,0.0468733
443.6000,0.0472504
443.4000,0.0470474
443.2000,0.0473062
443.0000,0.0479137
442.8000,0.0477503
442.6000,0.0473647
442.4000,0.0476481
442.2000,0.0476154
442.0000,0.0474083
441.8000,0.0477201
441.6000,0.0479729
441.4000,0.0480591
441.2000,0.0480541
441.0000,0.0481788
440.8000,0.0482156
440.6000,0.0482455
440.4000,0.0482995
440.2000,0.048285
440.0000,0.0483604
439.8000,0.0483847
439.6000,0.0482557
439.4000,0.0485899
439.2000,0.0487877
439.0000,0.0484861
438.8000,0.0485584
438.6000,0.0489237
438.4000,0.0491566
438.2000,0.0492461
438.0000,0.0492542
437.8000,0.0492271
437.6000,0.0490809
437.4000,0.0490917
437.2000,0.0492868
437.0000,0.0492495
436.8000,0.0492842
436.6000,0.0498402
436.4000,0.0499798
436.2000,0.0496944
436.0000,0.0499991
435.8000,0.0502377
435.6000,0.0500406
435.4000,0.0498532
435.2000,0.0502242
435.0000,0.050875
434.8000,0.050812
434.6000,0.0506965
434.4000,0.0505301
434.2000,0.0503344
434.0000,0.0505928
433.8000,0.0503701
433.6000,0.0505484
433.4000,0.0510215
433.2000,0.0507843
433.0000,0.0508611
432.8000,0.0511852
432.6000,0.0511096
432.4000,0.0512748
432.2000,0.0514702
432.0000,0.0515141
431.8000,0.0512948
431.6000,0.0515243
431.4000,0.0519996
431.2000,0.0519527
431.0000,0.0518703
430.8000,0.0519355
430.6000,0.0519075
430.4000,0.0521473
430.2000,0.0527166
430.0000,0.0524995
429.8000,0.052291
429.6000,0.052523
429.4000,0.0526025
429.2000,0.0526374
429.0000,0.0525722
428.8000,0.0526562
428.6000,0.0531119
428.4000,0.0529094
428.2000,0.0528592
428.0000,0.0529409
427.8000,0.0530601
427.6000,0.0534978
427.4000,0.0537813
427.2000,0.0538941
427.0000,0.0535957
426.8000,0.053614
426.6000,0.0540027
426.4000,0.0540489
426.2000,0.0538114
426.0000,0.0538084
425.8000,0.0537581
425.6000,0.0538334
425.4000,0.0543083
425.2000,0.0543392
425.0000,0.0538066
424.8000,0.0538055
424.6000,0.0544337
424.4000,0.0547298
424.2000,0.0548032
424.0000,0.0548581
423.8000,0.0550722
423.6000,0.0549178
423.4000,0.0548612
423.2000,0.0551147
423.0000,0.0553341
422.8000,0.0552925
422.6000,0.0549484
422.4000,0.055133
422.2000,0.0554621
422.0000,0.0553604
421.8000,0.0550617
421.6000,0.0555311
421.4000,0.0558742
421.2000,0.0555765
421.0000,0.0557028
420.8000,0.0559569
420.6000,0.0558149
420.4000,0.0555261
420.2000,0.0560161
420.0000,0.0566009
419.8000,0.0562551
419.6000,0.0563943
419.4000,0.0564711
419.2000,0.0563933
419.0000,0.0564724
418.8000,0.0565176
418.6000,0.0570998
418.4000,0.0571819
418.2000,0.0567868
418.0000,0.0568273
417.8000,0.0568487
417.6000,0.0573888
417.4000,0.0573954
417.2000,0.0571017
417.0000,0.0576068
416.8000,0.0578972
416.6000,0.0577235
416.4000,0.0575937
416.2000,0.0577664
416.0000,0.0578286
415.8000,0.0577727
415.6000,0.0578983
415.4000,0.0583897
415.2000,0.0584178
415.0000,0.0581892
414.8000,0.0579771
414.6000,0.0577836
414.4000,0.0583649
414.2000,0.0589941
414.0000,0.0589532
413.8000,0.0589383
413.6000,0.0589527
413.4000,0.0589469
413.2000,0.0591852
413.0000,0.0595111
412.8000,0.059137
412.6000,0.0590364
412.4000,0.0593651
412.2000,0.0595049
412.0000,0.0595295
411.8000,0.0593171
411.6000,0.0593562
411.4000,0.0595626
411.2000,0.0597983
411.0000,0.0598357
410.8000,0.0599162
410.6000,0.0601677
410.4000,0.0608725
410.2000,0.0609411
410.0000,0.0606889
409.8000,0.0612147
409.6000,0.0610012
409.4000,0.06065
409.2000,0.0602691
409.0000,0.0608087
408.8000,0.0609406
408.6000,0.0603294
408.4000,0.0608947
408.2000,0.0612479
408.0000,0.060776
407.8000,0.0611212
407.6000,0.0617992
407.4000,0.0615174
407.2000,0.061716
407.0000,0.061766
406.8000,0.0615189
406.6000,0.0619624
406.4000,0.0620664
406.2000,0.0619666
406.0000,0.0620749
405.8000,0.0620606
405.6000,0.0621125
405.4000,0.0618995
405.2000,0.0616395
405.0000,0.0621018
404.8000,0.0624263
404.6000,0.0623779
404.4000,0.0622788
404.2000,0.0625671
404.0000,0.062796
403.8000,0.0636435
403.6000,0.0642808
403.4000,0.0635296
403.2000,0.0627755
403.0000,0.0632043
402.8000,0.0640511
402.6000,0.0636237
402.4000,0.0633818
402.2000,0.0635821
402.0000,0.0634337
401.8000,0.0635714
401.6000,0.063897
401.4000,0.0642001
401.2000,0.0647054
401.0000,0.0645833
400.8000,0.0645834
400.6000,0.0646542
400.4000,0.0644526
400.2000,0.0647909
400.0000,0.0649905
399.8000,0.0646631
399.6000,0.0645448
399.4000,0.0647887
399.2000,0.0650375
399.0000,0.0652907
398.8000,0.0657357
398.6000,0.0656666
398.4000,0.064962
398.2000,0.0650965
398.0000,0.0656766
397.8000,0.0655955
397.6000,0.0653555
397.4000,0.065523
397.2000,0.0661663
397.0000,0.0665616
396.8000,0.0661447
396.6000,0.0660041
396.4000,0.0663315
396.2000,0.0665457
396.0000,0.0671465
395.8000,0.066826
395.6000,0.0667008
395.4000,0.066875
395.2000,0.0667753
395.0000,0.0672005
394.8000,0.0671024
394.6000,0.0669891
394.4000,0.0669682
394.2000,0.0673279
394.0000,0.0676839
393.8000,0.0674474
393.6000,0.0677643
393.4000,0.0677861
393.2000,0.0676825
393.0000,0.0682916
392.8000,0.0684407
392.6000,0.0681439
392.4000,0.0681212
392.2000,0.0684563
392.0000,0.0688271
391.8000,0.0688477
391.6000,0.0684381
391.4000,0.0687583
391.2000,0.0692259
391.0000,0.069081
390.8000,0.0686971
390.6000,0.0687935
390.4000,0.0690085
390.2000,0.0689863
390.0000,0.0696681
389.8000,0.0696521
389.6000,0.0693794
389.4000,0.0699481
389.2000,0.0700667
389.0000,0.070013
388.8000,0.0699791
388.6000,0.069703
388.4000,0.069969
388.2000,0.0701783
388.0000,0.0700819
387.8000,0.0704302
387.6000,0.0708198
387.4000,0.0708294
387.2000,0.0706456
387.0000,0.0702769
386.8000,0.0708858
386.6000,0.0713196
386.4000,0.0710251
386.2000,0.0716907
386.0000,0.0718981
385.8000,0.0713937
385.6000,0.0713955
385.4000,0.0715991
385.2000,0.0720871
385.0000,0.0719134
384.8000,0.0715425
384.6000,0.0721866
384.4000,0.0723766
384.2000,0.0723879
384.0000,0.0729608
383.8000,0.0730338
383.6000,0.0730443
383.4000,0.0733469
383.2000,0.0733527
383.0000,0.0735828
382.8000,0.0734967
382.6000,0.0733368
382.4000,0.0731772
382.2000,0.0735063
382.0000,0.0741975
381.8000,0.0744756
381.6000,0.0743391
381.4000,0.0744668
381.2000,0.0747547
381.0000,0.0743379
380.8000,0.0744589
380.6000,0.0744445
380.4000,0.0748444
380.2000,0.075154
380.0000,0.0747121
379.8000,0.0745483
379.6000,0.0749468
379.4000,0.0758155
379.2000,0.0760206
379.0000,0.0757296
378.8000,0.0756936
378.6000,0.0756286
378.4000,0.0755854
378.2000,0.075881
378.0000,0.0758809
377.8000,0.0759608
377.6000,0.0762696
377.4000,0.0767339
377.2000,0.0765197
377.0000,0.0757861
376.8000,0.0764822
376.6000,0.0774679
376.4000,0.0771053
376.2000,0.0768982
376.0000,0.0770636
375.8000,0.0770822
375.6000,0.0770847
375.4000,0.0774103
375.2000,0.0778964
375.0000,0.0782426
374.8000,0.0781159
374.6000,0.0778114
374.4000,0.078067
374.2000,0.0785458
374.0000,0.0788109
373.8000,0.0788376
373.6000,0.0792206
373.4000,0.0795962
373.2000,0.0788835
373.0000,0.0790806
372.8000,0.0799023
372.6000,0.0796562
372.4000,0.0796818
372.2000,0.0797085
372.0000,0.0797452
371.8000,0.0800956
371.6000,0.0804369
371.4000,0.0804197
371.2000,0.0804874
371.0000,0.0805796
370.8000,0.0810392
370.6000,0.082049
370.4000,0.0821499
370.2000,0.0817444
370.0000,0.08189
369.8000,0.0814484
369.6000,0.0809095
369.4000,0.081828
369.2000,0.0819038
369.0000,0.0813296
368.8000,0.0806187
368.6000,0.0807616
368.4000,0.08109
368.2000,0.081979
368.0000,0.0821143
367.8000,0.0828245
367.6000,0.0834455
367.4000,0.0827129
367.2000,0.0827657
367.0000,0.0824351
366.8000,0.083125
366.6000,0.0841897
366.4000,0.0840191
366.2000,0.0842936
366.0000,0.0846179
365.8000,0.0838939
365.6000,0.0841918
365.4000,0.0847893
365.2000,0.0848195
365.0000,0.0853527
364.8000,0.0856531
364.6000,0.0851537
364.4000,0.0845951
364.2000,0.0854976
364.0000,0.085394
363.8000,0.0846694
363.6000,0.0852423
363.4000,0.0861202
363.2000,0.0868147
363.0000,0.0865603
362.8000,0.0864388
362.6000,0.0872108
362.4000,0.0869697
362.2000,0.0858785
362.0000,0.0870493
361.8000,0.0880721
361.6000,0.0871277
361.4000,0.0874573
361.2000,0.0876497
361.0000,0.0876595
360.8000,0.0879463
360.6000,0.0880057
360.4000,0.087966
360.2000,0.0874372
360.0000,0.0880589
359.8000,0.0887714
359.6000,0.0883773
359.4000,0.0883038
359.2000,0.0887102
359.0000,0.0887641
358.8000,0.0886998
358.6000,0.0884975
358.4000,0.0896794
358.2000,0.090579
358.0000,0.0897843
357.8000,0.0901044
357.6000,0.0905613
357.4000,0.0905504
357.2000,0.0906234
357.0000,0.0906773
356.8000,0.0909273
356.6000,0.0906399
356.4000,0.0899423
356.2000,0.0905246
356.0000,0.0916698
355.8000,0.0914811
355.6000,0.091777
355.4000,0.0922428
355.2000,0.0917179
355.0000,0.0927725
354.8000,0.0928822
354.6000,0.0920673
354.4000,0.0923843
354.2000,0.0923269
354.0000,0.0925837
353.8000,0.0948316
353.6000,0.0943567
353.4000,0.0931183
353.2000,0.0941982
353.0000,0.0937927
352.8000,0.093896
352.6000,0.09485
352.4000,0.0951332
352.2000,0.0945216
352.0000,0.0939206
351.8000,0.0940187
351.6000,0.0946405
351.4000,0.0956383
351.2000,0.0954942
351.0000,0.0950492
350.8000,0.0955978
350.6000,0.0944938
350.4000,0.0947209
350.2000,0.0961385
350.0000,0.0961264
349.8000,0.0959264
349.6000,0.0961468
349.4000,0.0967811
349.2000,0.0962511
349.0000,0.0957421
348.8000,0.0956124
348.6000,0.0960447
348.4000,0.0966865
348.2000,0.0971991
348.0000,0.0972701
347.8000,0.0965379
347.6000,0.096627
347.4000,0.0970238
347.2000,0.0969191
347.0000,0.0972744
346.8000,0.0975405
346.6000,0.0976272
346.4000,0.0981475
346.2000,0.0986136
346.0000,0.0989314
345.8000,0.0990803
345.6000,0.0990535
345.4000,0.0986782
345.2000,0.0988012
345.0000,0.100309
344.8000,0.100852
344.6000,0.0993297
344.4000,0.0990622
344.2000,0.0991995
344.0000,0.0986662
343.8000,0.100152
343.6000,0.100203
343.4000,0.100112
343.2000,0.100564
343.0000,0.100352
342.8000,0.100734
342.6000,0.101055
342.4000,0.101425
342.2000,0.100876
342.0000,0.101264
341.8000,0.101603
341.6000,0.101932
341.4000,0.102466
341.2000,0.102208
341.0000,0.102064
340.8000,0.101744
340.6000,0.101708
340.4000,0.102247
340.2000,0.101909
340.0000,0.101702
339.8000,0.101671
339.6000,0.102132
339.4000,0.103686
339.2000,0.103351
339.0000,0.102456
338.8000,0.1024
338.6000,0.10221
338.4000,0.102586
338.2000,0.103358
338.0000,0.102914
337.8000,0.102732
337.6000,0.102895
337.4000,0.103885
337.2000,0.105087
337.0000,0.105236
336.8000,0.104922
336.6000,0.104292
336.4000,0.104529
336.2000,0.104846
336.0000,0.104978
335.8000,0.104273
335.6000,0.104214
335.4000,0.10531
335.2000,0.106356
335.0000,0.106907
334.8000,0.106274
334.6000,0.106092
334.4000,0.106561
334.2000,0.105476
334.0000,0.105346
333.8000,0.106372
333.6000,0.106358
333.4000,0.10641
333.2000,0.106683
333.0000,0.107362
332.8000,0.107795
332.6000,0.108269
332.4000,0.10785
332.2000,0.107383
332.0000,0.108096
331.8000,0.108847
331.6000,0.109376
331.4000,0.109392
331.2000,0.110117
331.0000,0.109908
330.8000,0.108474
330.6000,0.108901
330.4000,0.109976
330.2000,0.110071
330.0000,0.110252
329.8000,0.11021
329.6000,0.110382
329.4000,0.111078
329.2000,0.110648
329.0000,0.11137
328.8000,0.112809
328.6000,0.112342
328.4000,0.111879
328.2000,0.112483
328.0000,0.113001
327.8000,0.113104
327.6000,0.11277
327.4000,0.113105
327.2000,0.113315
327.0000,0.113811
326.8000,0.114316
326.6000,0.114239
326.4000,0.115097
326.2000,0.115235
326.0000,0.114566
325.8000,0.114182
325.6000,0.114884
325.4000,0.115162
325.2000,0.113132
325.0000,0.113715
324.8000,0.115381
324.6000,0.116365
324.4000,0.116825
324.2000,0.116365
324.0000,0.115854
323.8000,0.116397
323.6000,0.117672
323.4000,0.116991
323.2000,0.11717
323.0000,0.11731
322.8000,0.117816
322.6000,0.118279
322.4000,0.118149
322.2000,0.118039
322.0000,0.117874
321.8000,0.118681
321.6000,0.119909
321.4000,0.121016
321.2000,0.121134
321.0000,0.120599
320.8000,0.120117
320.6000,0.120443
320.4000,0.12169
320.2000,0.122609
320.0000,0.123497
319.8000,0.123358
319.6000,0.122752
319.4000,0.122353
319.2000,0.122123
319.0000,0.121592
318.8000,0.122103
318.6000,0.123211
318.4000,0.122246
318.2000,0.121935
318.0000,0.123122
317.8000,0.123514
317.6000,0.123754
317.4000,0.125868
317.2000,0.126341
317.0000,0.125275
316.8000,0.124985
316.6000,0.12501
316.4000,0.125898
316.2000,0.125913
316.0000,0.125676
315.8000,0.126119
315.6000,0.126577
315.4000,0.126821
315.2000,0.127835
315.0000,0.127641
314.8000,0.126903
314.6000,0.127579
314.4000,0.128475
314.2000,0.129526
314.0000,0.128189
313.8000,0.127608
313.6000,0.127951
313.4000,0.127396
313.2000,0.127653
313.0000,0.128917
312.8000,0.130735
312.6000,0.130304
312.4000,0.12979
312.2000,0.129889
312.0000,0.130711
311.8000,0.132638
311.6000,0.131704
311.4000,0.130496
311.2000,0.13151
311.0000,0.130547
310.8000,0.130725
310.6000,0.131629
310.4000,0.131088
310.2000,0.132123
310.0000,0.133023
309.8000,0.133177
309.6000,0.13219
309.4000,0.131105
309.2000,0.131588
309.0000,0.132942
308.8000,0.133602
308.6000,0.135016
308.4000,0.135781
308.2000,0.134096
308.0000,0.132115
307.8000,0.134371
307.6000,0.13536
307.4000,0.134413
307.2000,0.133947
307.0000,0.134459
306.8000,0.135409
306.6000,0.134803
306.4000,0.137096
306.2000,0.136662
306.0000,0.134026
305.8000,0.134475
305.6000,0.134922
305.4000,0.136113
305.2000,0.138213
305.0000,0.137459
304.8000,0.135826
304.6000,0.135524
304.4000,0.135768
304.2000,0.136672
304.0000,0.137369
303.8000,0.137829
303.6000,0.138513
303.4000,0.137389
303.2000,0.136822
303.0000,0.138332
302.8000,0.139556
302.6000,0.139607
302.4000,0.139836
302.2000,0.141519
302.0000,0.141336
301.8000,0.139473
301.6000,0.138699
301.4000,0.139903
301.2000,0.141194
301.0000,0.141341
300.8000,0.141962
300.6000,0.140976
300.4000,0.140555
300.2000,0.142025
300.0000,0.14222
299.8000,0.142669
299.6000,0.144031
299.4000,0.143793
299.2000,0.142759
299.0000,0.14129
298.8000,0.142866
298.6000,0.145106
298.4000,0.143407
298.2000,0.144116
298.0000,0.146181
297.8000,0.146023
297.6000,0.143873
297.4000,0.142549
297.2000,0.144426
297.0000,0.145944
296.8000,0.144142
296.6000,0.143374
296.4000,0.145798
296.2000,0.145716
296.0000,0.144474
295.8000,0.143388
295.6000,0.144801
295.4000,0.146264
295.2000,0.145237
295.0000,0.143751
294.8000,0.143965
294.6000,0.144937
294.4000,0.144644
294.2000,0.146316
294.0000,0.148573
293.8000,0.147519
293.6000,0.146804
293.4000,0.14699
293.2000,0.148162
293.0000,0.147768
292.8000,0.146877
292.6000,0.148488
292.4000,0.146107
292.2000,0.145301
292.0000,0.14632
291.8000,0.1459
291.6000,0.145575
291.4000,0.147401
291.2000,0.151136
291.0000,0.15122
290.8000,0.150541
290.6000,0.150213
290.4000,0.150181
290.2000,0.147741
290.0000,0.145597
289.8000,0.147897
289.6000,0.149823
289.4000,0.149464
289.2000,0.148017
289.0000,0.14843
288.8000,0.150263
288.6000,0.150319
288.4000,0.147455
288.2000,0.147637
288.0000,0.14813
287.8000,0.147719
287.6000,0.149794
287.4000,0.149995
287.2000,0.148832
287.0000,0.148363
286.8000,0.150372
286.6000,0.152
286.4000,0.151734
286.2000,0.152695
286.0000,0.151247
285.8000,0.150149
285.6000,0.151127
285.4000,0.150453
285.2000,0.151108
285.0000,0.150179
284.8000,0.148489
284.6000,0.151986
284.4000,0.150668
284.2000,0.147452
284.0000,0.150057
283.8000,0.149757
283.6000,0.151021
283.4000,0.152022
283.2000,0.152382
283.0000,0.152892
282.8000,0.150527
282.6000,0.15075
282.4000,0.150259
282.2000,0.152052
282.0000,0.151719
281.8000,0.147929
281.6000,0.145286
281.4000,0.148754
281.2000,0.152661
281.0000,0.148409
280.8000,0.146542
280.6000,0.15038
280.4000,0.151596
280.2000,0.146914
280.0000,0.144069
279.8000,0.146139
279.6000,0.145468
279.4000,0.14588
279.2000,0.148966
279.0000,0.145829
278.8000,0.147663
278.6000,0.147922
278.4000,0.14455
278.2000,0.143378
278.0000,0.141896
277.8000,0.144392
277.6000,0.142392
277.4000,0.141602
277.2000,0.143182
277.0000,0.142853
276.8000,0.14143
276.6000,0.1426
276.4000,0.140214
276.2000,0.140852
276.0000,0.147354
275.8000,0.141649
275.6000,0.138312
275.4000,0.13962
275.2000,0.135906
275.0000,0.13571
274.8000,0.134758
274.6000,0.130308
274.4000,0.130001
274.2000,0.131623
274.0000,0.135363
273.8000,0.137733
273.6000,0.135337
273.4000,0.135399
273.2000,0.130946
273.0000,0.12563
272.8000,0.129136
272.6000,0.127686
272.4000,0.130634
272.2000,0.132247
272.0000,0.128459
271.8000,0.12444
271.6000,0.122889
271.4000,0.125367
271.2000,0.118995
271.0000,0.115968
270.8000,0.118984
270.6000,0.119789
270.4000,0.121704
270.2000,0.118234
270.0000,0.118734
269.8000,0.117371
269.6000,0.110702
269.4000,0.110062
269.2000,0.108472
269.0000,0.108173
268.8000,0.104134
268.6000,0.108476
268.4000,0.113004
268.2000,0.109443
268.0000,0.10418
267.8000,0.101966
267.6000,0.103979
267.4000,0.0985044
267.2000,0.0917886
267.0000,0.092172
266.8000,0.0963366
266.6000,0.090025
266.4000,0.0868175
266.2000,0.0894414
266.0000,0.0857296
265.8000,0.079185
265.6000,0.070972
265.4000,0.0768831
265.2000,0.0802091
265.0000,0.0774657
264.8000,0.0803313
264.6000,0.0730102
264.4000,0.0681388
264.2000,0.0757681
264.0000,0.0755981
263.8000,0.0702064
263.6000,0.0662373
263.4000,0.0597848
263.2000,0.0534294
263.0000,0.059078
262.8000,0.0701537
262.6000,0.0731278
262.4000,0.0642857
262.2000,0.0555164
262.0000,0.0537403
261.8000,0.0535998
261.6000,0.061558
261.4000,0.0567157
261.2000,0.0487071
261.0000,0.0521496
260.8000,0.050313
260.6000,0.0475681
260.4000,0.0487754
260.2000,0.0482608
260.0000,0.0501274
259.8000,0.0422843
259.6000,0.0360138
259.4000,0.0407636
259.2000,0.0376996
259.0000,0.0291935
258.8000,0.0303724
258.6000,0.0294627
258.4000,0.0260599
258.2000,0.0383634
258.0000,0.0386129
257.8000,0.0240204
257.6000,0.0213415
257.4000,0.0324636
257.2000,0.0357424
257.0000,0.0307726
256.8000,0.032314
256.6000,0.0307164
256.4000,0.0289902
256.2000,0.0264871
256.0000,0.0216094
255.8000,0.0164812
255.6000,0.0191652
255.4000,0.0231877
255.2000,0.0178443
255.0000,0.0207629
254.8000,0.0196445
254.6000,0.0168765
254.4000,0.025672
254.2000,0.0270205
254.0000,0.0215646
253.8000,0.0182815
253.6000,0.0151527
253.4000,0.0127896
253.2000,0.015723
253.0000,0.0175616
252.8000,0.0224656
252.6000,0.0246123
252.4000,0.0200334
252.2000,0.0234917
252.0000,0.0182537
251.8000,0.0189366
251.6000,0.020964
251.4000,0.016734
251.2000,0.0164936
251.0000,0.0132938
250.8000,0.015666
250.6000,0.0137132
250.4000,0.0089616
250.2000,0.0134852
250.0000,0.0188454
249.8000,0.0219087
249.6000,0.0135498
249.4000,0.00589459
249.2000,0.00990201
249.0000,0.0123153
248.8000,0.0125358
248.6000,0.0143978
248.4000,0.0196013
248.2000,0.0174403
248.0000,0.0127925
247.8000,0.0180817
247.6000,0.0246015
247.4000,0.0349026
247.2000,0.0272061
247.0000,0.0146478
246.8000,0.0183554
246.6000,0.0191095
246.4000,0.022195
246.2000,0.0118855
246.0000,0.00882508
245.8000,0.0163129
245.6000,0.018161
245.4000,0.0232689
245.2000,0.0250557
245.0000,0.0179656
244.8000,0.015115
244.6000,0.0127885
244.4000,0.00911989
244.2000,0.0108398
244.0000,0.0130251
243.8000,0.0194565
243.6000,0.0165947
243.4000,0.00959744
243.2000,0.0120068
243.0000,0.0224364
242.8000,0.0190797
242.6000,0.0109251
242.4000,0.0118525
242.2000,0.0155284
242.0000,0.0285587
241.8000,0.0207127
241.6000,0.0114683
241.4000,0.0166187
241.2000,0.0171711
241.0000,0.0173084
240.8000,0.0179653
240.6000,0.01785
240.4000,0.0163283
240.2000,0.0157117
240.0000,0.017057
239.8000,0.0174759
239.6000,0.0238227
239.4000,0.0251319
239.2000,0.0234489
239.0000,0.0191951
238.8000,0.0134535
238.6000,0.0217363
238.4000,0.0191945
238.2000,0.0151809
238.0000,0.0150031
237.8000,0.0143299
237.6000,0.0184116
237.4000,0.0216869
237.2000,0.0174072
237.0000,0.017848
236.8000,0.0207352
236.6000,0.0119343
236.4000,0.0104991
236.2000,0.0124519
236.0000,0.0184765
235.8000,0.0248173
235.6000,0.0129822
235.4000,0.0162479
235.2000,0.0233094
235.0000,0.0188727
234.8000,0.0172088
234.6000,0.0115166
234.4000,0.016957
234.2000,0.0227272
234.0000,0.0135723
233.8000,0.010455
233.6000,0.0182448
233.4000,0.0188134
233.2000,0.0121196
233.0000,0.0146272
232.8000,0.0152263
232.6000,0.013652
232.4000,0.0162227
232.2000,0.0136995
232.0000,0.0123696
231.8000,0.0155344
231.6000,0.015097
231.4000,0.0146309
231.2000,0.0166998
231.0000,0.0098976
230.8000,0.016669
230.6000,0.0245383
230.4000,0.0235429
230.2000,0.0192857
230.0000,0.0193738
229.8000,0.0284519
229.6000,0.0191598
229.4000,0.0049731
229.2000,0.00509189
229.0000,0.0107298
228.8000,0.0150241
228.6000,0.015795
228.4000,0.0187989
228.2000,0.0175352
228.0000,0.012755
227.8000,0.019112
227.6000,0.0164012
227.4000,0.0105494
227.2000,0.0195942
227.0000,0.0161887
226.8000,0.0121898
226.6000,0.0103456
226.4000,0.0096834
226.2000,0.0114586
226.0000,0.00445076
225.8000,0.0135342
225.6000,0.0159003
225.4000,0.00940042
225.2000,0.0210973
225.0000,0.0267805
224.8000,0.00933725
224.6000,-0.000754632
224.4000,0.0133161
224.2000,0.0232791
224.0000,0.0172847
223.8000,0.0103148
223.6000,0.00563143
223.4000,0.00857548
223.2000,0.0147918
223.0000,0.0103476
222.8000,0.00998386
222.6000,0.0196252
222.4000,0.0164865
222.2000,0.0106019
222.0000,0.00499612
221.8000,0.00419259
221.6000,0.0136831
221.4000,0.00869808
221.2000,0.00421835
221.0000,0.00330186
220.8000,0.0111704
220.6000,0.0202792
220.4000,0.0192454
220.2000,0.0221104
220.0000,0.0154612
219.8000,0.00673643
219.6000,0.0122707
219.4000,0.0199406
219.2000,0.0218605
219.0000,0.0254856
218.8000,0.0215899
218.6000,0.0158736
218.4000,0.0211373
218.2000,0.0226746
218.0000,0.0211511
217.8000,0.0165746
217.6000,0.0137423
217.4000,0.0121928
217.2000,0.0126624
217.0000,0.0129917
216.8000,0.0111803
216.6000,0.0144656
216.4000,0.0118101
216.2000,0.00873044
216.0000,0.0115992
215.8000,0.0127414
215.6000,0.0149582
215.4000,0.0167391
215.2000,0.0130306
215.0000,0.0164216
214.8000,0.010238
214.6000,0.0091968
214.4000,0.0134933
214.2000,0.0076826
214.0000,0.0116324
213.8000,0.0110003
213.6000,0.0139311
213.4000,0.019025
213.2000,0.0185762
213.0000,0.0189863
212.8000,0.0118123
212.6000,0.00665749
212.4000,0.00685689
212.2000,0.0113866
212.0000,0.0148289
211.8000,0.0227697
211.6000,0.0222348
211.4000,0.0130392
211.2000,0.0204406
211.0000,0.0195939
210.8000,0.019314
210.6000,0.015946
210.4000,0.0101668
210.2000,0.00987417
210.0000,0.00965282
209.8000,0.00760152
209.6000,0.00847376
209.4000,0.0152213
209.2000,0.0170291
209.0000,0.0160853
208.8000,0.00597769
208.6000,0.00799817
208.4000,0.0129521
208.2000,0.0107189
208.0000,0.0116309
207.8000,0.010018
207.6000,0.0126103
207.4000,0.0136814
207.2000,0.0124372
207.0000,0.0168167
206.8000,0.0241855
206.6000,0.0248995
206.4000,0.0171206
206.2000,0.0155311
206.0000,0.0159409
205.8000,0.0195915
205.6000,0.0172549
205.4000,0.00737268
205.2000,0.00825729
205.0000,0.0186408
204.8000,0.0155035
204.6000,0.00585711
204.4000,0.0127151
204.2000,0.021663
204.0000,0.0164812
203.8000,0.0087807
203.6000,0.0108915
203.4000,0.0116845
203.2000,0.0136343
203.0000,0.0141575
202.8000,0.00677527
202.6000,0.0120737
202.4000,0.0208135
202.2000,0.0167656
202.0000,0.0074935
201.8000,0.00723462
201.6000,0.0170906
201.4000,0.0178846
201.2000,0.0114461
201.0000,0.00994704
200.8000,0.0154621
200.6000,0.0137382
200.4000,0.00764138
200.2000,0.00494859
200.0000,0.00417374

##### Extended Information
[Comments]
Sample name
Comment
Username
Division
Organization,IIT Gandhinagar

[Detailed Information]
Creation date,13-10-2022 15:52

Data array type,Linear data array
Horizontal axis,Wavelength [nm]
Vertical axis,Abs
Start,900 nm
End,200 nm
Data interval,0.2 nm
Data points,3501    

[Measurement Information]
Instrument name,UV-Vis Spectrometer
Model name,V-750
Serial No.,A009361799

Accessory,USE-753
Accessory S/N,A009361799
  Cell,
  Ref. beam,

Measurement date,13-10-2022 15:51

Photometric mode,Abs
Measurement range,900 - 200 nm
Data interval,0.2 nm
Bandwidth,1.0 nm
Response,0.06 sec
Scan mode,Continuous
Scan speed,400 nm/min
Change source at,340 nm
Light source,D2/WI
Filter exchange,Step
Correction,Baseline
No. of cycles,1

