TITLE,
DATA TYPE,ULTRAVIOLET SPECTRUM
ORIGIN,JASCO
OWNER,
DATE,22/10/18
TIME,18:34:30
SPECTROMETER/DATA SYSTEM,
LOCALE,16393
RESOLUTION,
DELTAX,-0.2
XUNITS,NANOMETERS
YUNITS,ABSORBANCE
FIRSTX,  900.0000
LASTX,  200.0000
NPOINTS,    3501
FIRSTY,     0.01131
MAXY,     0.14655
MINY,     0.00656
XYDATA
900.0000,0.011309
899.8000,0.00883912
899.6000,0.0128367
899.4000,0.0138216
899.2000,0.0123614
899.0000,0.0128154
898.8000,0.0104135
898.6000,0.00759367
898.4000,0.00686236
898.2000,0.0105832
898.0000,0.0127064
897.8000,0.011129
897.6000,0.0123749
897.4000,0.0138367
897.2000,0.0146178
897.0000,0.0150015
896.8000,0.0128877
896.6000,0.0117221
896.4000,0.0104911
896.2000,0.00722326
896.0000,0.00933445
895.8000,0.0132262
895.6000,0.0105964
895.4000,0.00930382
895.2000,0.0106352
895.0000,0.0111389
894.8000,0.00979196
894.6000,0.00904678
894.4000,0.00912055
894.2000,0.0111639
894.0000,0.0136031
893.8000,0.0143678
893.6000,0.0148257
893.4000,0.0142256
893.2000,0.0137199
893.0000,0.0101545
892.8000,0.00655869
892.6000,0.0097499
892.4000,0.0143981
892.2000,0.0126079
892.0000,0.0132566
891.8000,0.0144464
891.6000,0.0119288
891.4000,0.01114
891.2000,0.00806075
891.0000,0.00666338
890.8000,0.00821315
890.6000,0.00955449
890.4000,0.00997131
890.2000,0.0093379
890.0000,0.0113471
889.8000,0.0126709
889.6000,0.0133962
889.4000,0.0118776
889.2000,0.0100256
889.0000,0.0108564
888.8000,0.0121014
888.6000,0.0120735
888.4000,0.0105726
888.2000,0.00918758
888.0000,0.010653
887.8000,0.0104915
887.6000,0.00943766
887.4000,0.0104925
887.2000,0.0108359
887.0000,0.0125325
886.8000,0.0126417
886.6000,0.011561
886.4000,0.00989201
886.2000,0.0103502
886.0000,0.00995536
885.8000,0.0100938
885.6000,0.0128662
885.4000,0.0119541
885.2000,0.0100617
885.0000,0.0101906
884.8000,0.0104202
884.6000,0.0111612
884.4000,0.011449
884.2000,0.0097897
884.0000,0.0103252
883.8000,0.0123966
883.6000,0.0128265
883.4000,0.0143464
883.2000,0.0126951
883.0000,0.0107808
882.8000,0.0110279
882.6000,0.0105224
882.4000,0.0101158
882.2000,0.01119
882.0000,0.0128765
881.8000,0.0113878
881.6000,0.011345
881.4000,0.012193
881.2000,0.0112376
881.0000,0.0110338
880.8000,0.0118745
880.6000,0.0107544
880.4000,0.00897487
880.2000,0.0106128
880.0000,0.0130464
879.8000,0.0109159
879.6000,0.00939162
879.4000,0.0106113
879.2000,0.0124173
879.0000,0.0124749
878.8000,0.0104539
878.6000,0.0109074
878.4000,0.0101449
878.2000,0.00967227
878.0000,0.0111748
877.8000,0.0111457
877.6000,0.0107485
877.4000,0.0111598
877.2000,0.0121392
877.0000,0.0117493
876.8000,0.0115473
876.6000,0.0120942
876.4000,0.0121639
876.2000,0.0116437
876.0000,0.0106046
875.8000,0.0108752
875.6000,0.0118446
875.4000,0.013157
875.2000,0.0130258
875.0000,0.0108346
874.8000,0.0112775
874.6000,0.0118259
874.4000,0.0106244
874.2000,0.010582
874.0000,0.0105122
873.8000,0.0110784
873.6000,0.0118768
873.4000,0.0120635
873.2000,0.0126923
873.0000,0.0122573
872.8000,0.0117278
872.6000,0.0118562
872.4000,0.011932
872.2000,0.0116819
872.0000,0.0108107
871.8000,0.0111297
871.6000,0.0111828
871.4000,0.0104123
871.2000,0.0107949
871.0000,0.0112837
870.8000,0.0112264
870.6000,0.0101371
870.4000,0.0101416
870.2000,0.0116144
870.0000,0.0112634
869.8000,0.0108796
869.6000,0.0106704
869.4000,0.0106908
869.2000,0.0116055
869.0000,0.0112084
868.8000,0.011291
868.6000,0.0114185
868.4000,0.0116986
868.2000,0.0119626
868.0000,0.0116263
867.8000,0.0117253
867.6000,0.0113085
867.4000,0.0108853
867.2000,0.0110077
867.0000,0.0112221
866.8000,0.0112642
866.6000,0.0119515
866.4000,0.0117801
866.2000,0.0111001
866.0000,0.011785
865.8000,0.0113158
865.6000,0.0107995
865.4000,0.0108839
865.2000,0.0114454
865.0000,0.0116529
864.8000,0.0113534
864.6000,0.0113738
864.4000,0.0105908
864.2000,0.0109848
864.0000,0.0111077
863.8000,0.0112959
863.6000,0.0120744
863.4000,0.0122463
863.2000,0.0123078
863.0000,0.0121379
862.8000,0.011589
862.6000,0.0110545
862.4000,0.0106156
862.2000,0.0107296
862.0000,0.010916
861.8000,0.0109275
861.6000,0.0112701
861.4000,0.0114801
861.2000,0.0119529
861.0000,0.0111719
860.8000,0.0101354
860.6000,0.0105137
860.4000,0.011516
860.2000,0.0118967
860.0000,0.0114496
859.8000,0.0112784
859.6000,0.0112723
859.4000,0.0111037
859.2000,0.0108833
859.0000,0.0109003
858.8000,0.0111925
858.6000,0.0114339
858.4000,0.0116377
858.2000,0.0116876
858.0000,0.0109036
857.8000,0.0107021
857.6000,0.0112705
857.4000,0.0113006
857.2000,0.0112335
857.0000,0.0111974
856.8000,0.0114333
856.6000,0.0113414
856.4000,0.0109203
856.2000,0.0111104
856.0000,0.0114956
855.8000,0.0116704
855.6000,0.0116705
855.4000,0.0119705
855.2000,0.011803
855.0000,0.0110304
854.8000,0.0110472
854.6000,0.0115731
854.4000,0.0116319
854.2000,0.0110234
854.0000,0.0108012
853.8000,0.0108429
853.6000,0.0104128
853.4000,0.0105038
853.2000,0.0109813
853.0000,0.0112611
852.8000,0.0109747
852.6000,0.0107856
852.4000,0.0106746
852.2000,0.0104228
852.0000,0.0106173
851.8000,0.0110702
851.6000,0.0110928
851.4000,0.0109921
851.2000,0.0109879
851.0000,0.0113362
850.8000,0.011391
850.6000,0.011425
850.4000,0.0115787
850.2000,0.0110476
850.0000,0.0112612
849.8000,0.0112309
849.6000,0.0111523
849.4000,0.0112308
849.2000,0.0111952
849.0000,0.0115135
848.8000,0.0114202
848.6000,0.0112677
848.4000,0.0113551
848.2000,0.0113146
848.0000,0.0109398
847.8000,0.0110632
847.6000,0.0110977
847.4000,0.0106832
847.2000,0.0109084
847.0000,0.0113452
846.8000,0.0113765
846.6000,0.0115235
846.4000,0.0117847
846.2000,0.0116506
846.0000,0.0114145
845.8000,0.0116846
845.6000,0.0116748
845.4000,0.0112956
845.2000,0.0110964
845.0000,0.0107976
844.8000,0.0107907
844.6000,0.0107218
844.4000,0.0111317
844.2000,0.0114906
844.0000,0.0106226
843.8000,0.0103749
843.6000,0.0107525
843.4000,0.0109059
843.2000,0.0109522
843.0000,0.0110739
842.8000,0.0113043
842.6000,0.011004
842.4000,0.0105669
842.2000,0.0109017
842.0000,0.0113899
841.8000,0.0113003
841.6000,0.0110679
841.4000,0.0108604
841.2000,0.0110821
841.0000,0.0111072
840.8000,0.0111563
840.6000,0.0110293
840.4000,0.0109307
840.2000,0.0111562
840.0000,0.0113422
839.8000,0.0115597
839.6000,0.0113798
839.4000,0.0110796
839.2000,0.0111168
839.0000,0.0113727
838.8000,0.0113441
838.6000,0.0109968
838.4000,0.0109957
838.2000,0.0117356
838.0000,0.0117638
837.8000,0.0113132
837.6000,0.0112419
837.4000,0.0115067
837.2000,0.0114634
837.0000,0.011487
836.8000,0.011595
836.6000,0.0114536
836.4000,0.0114627
836.2000,0.0111645
836.0000,0.0109885
835.8000,0.0112931
835.6000,0.0112358
835.4000,0.0111461
835.2000,0.0113148
835.0000,0.0113668
834.8000,0.0114049
834.6000,0.0110084
834.4000,0.0111948
834.2000,0.0114189
834.0000,0.011166
833.8000,0.0112492
833.6000,0.0116508
833.4000,0.0119437
833.2000,0.0114664
833.0000,0.0113513
832.8000,0.0112636
832.6000,0.0111253
832.4000,0.0114507
832.2000,0.0114962
832.0000,0.0115407
831.8000,0.0115064
831.6000,0.0114323
831.4000,0.0115614
831.2000,0.0112905
831.0000,0.01147
830.8000,0.0116392
830.6000,0.0114818
830.4000,0.011582
830.2000,0.0112639
830.0000,0.0111284
829.8000,0.0113468
829.6000,0.0116156
829.4000,0.0117192
829.2000,0.0116223
829.0000,0.0117417
828.8000,0.0116315
828.6000,0.0112215
828.4000,0.01124
828.2000,0.0114629
828.0000,0.0115048
827.8000,0.0115929
827.6000,0.0116453
827.4000,0.011644
827.2000,0.0117045
827.0000,0.0118888
826.8000,0.0119899
826.6000,0.0117534
826.4000,0.0117265
826.2000,0.0116267
826.0000,0.0115848
825.8000,0.0117422
825.6000,0.011883
825.4000,0.0116529
825.2000,0.0112187
825.0000,0.011372
824.8000,0.0115241
824.6000,0.0114442
824.4000,0.0114739
824.2000,0.0114439
824.0000,0.011607
823.8000,0.0115781
823.6000,0.0114802
823.4000,0.0114619
823.2000,0.0116006
823.0000,0.0117754
822.8000,0.0115652
822.6000,0.0116435
822.4000,0.0116225
822.2000,0.0117188
822.0000,0.0117925
821.8000,0.0115998
821.6000,0.0114138
821.4000,0.0114174
821.2000,0.0114307
821.0000,0.0112295
820.8000,0.0116537
820.6000,0.0118441
820.4000,0.0115074
820.2000,0.0117062
820.0000,0.0119784
819.8000,0.0119657
819.6000,0.0117903
819.4000,0.0113842
819.2000,0.0114241
819.0000,0.0116061
818.8000,0.0117952
818.6000,0.0119095
818.4000,0.0116748
818.2000,0.011733
818.0000,0.0117709
817.8000,0.0118085
817.6000,0.0116035
817.4000,0.0115344
817.2000,0.011577
817.0000,0.0115932
816.8000,0.0120745
816.6000,0.0120804
816.4000,0.0119833
816.2000,0.0119791
816.0000,0.0115949
815.8000,0.0115633
815.6000,0.0119259
815.4000,0.0119957
815.2000,0.0117303
815.0000,0.0119833
814.8000,0.0123161
814.6000,0.0121055
814.4000,0.0118851
814.2000,0.0117673
814.0000,0.0115449
813.8000,0.0114739
813.6000,0.0119112
813.4000,0.0121513
813.2000,0.011708
813.0000,0.0115865
812.8000,0.0117408
812.6000,0.011717
812.4000,0.0118303
812.2000,0.0119402
812.0000,0.0119643
811.8000,0.0119669
811.6000,0.0119184
811.4000,0.01197
811.2000,0.0119478
811.0000,0.01205
810.8000,0.0119878
810.6000,0.0117597
810.4000,0.0121756
810.2000,0.012166
810.0000,0.0118482
809.8000,0.0120192
809.6000,0.012089
809.4000,0.0121954
809.2000,0.0119775
809.0000,0.0119493
808.8000,0.01192
808.6000,0.0118161
808.4000,0.0122257
808.2000,0.0120261
808.0000,0.0118311
807.8000,0.0117849
807.6000,0.0117362
807.4000,0.0119631
807.2000,0.0119571
807.0000,0.0119993
806.8000,0.0119316
806.6000,0.011724
806.4000,0.0119447
806.2000,0.0119801
806.0000,0.0117587
805.8000,0.0119393
805.6000,0.0121258
805.4000,0.0123159
805.2000,0.0122128
805.0000,0.0120945
804.8000,0.0120999
804.6000,0.0122103
804.4000,0.0123621
804.2000,0.0125009
804.0000,0.0124639
803.8000,0.0120018
803.6000,0.0120117
803.4000,0.0122228
803.2000,0.0121209
803.0000,0.0118386
802.8000,0.0119699
802.6000,0.0121705
802.4000,0.0119365
802.2000,0.0119416
802.0000,0.0120958
801.8000,0.0120619
801.6000,0.0123075
801.4000,0.012332
801.2000,0.0121902
801.0000,0.0121581
800.8000,0.0123334
800.6000,0.0122474
800.4000,0.0120839
800.2000,0.0123944
800.0000,0.0122355
799.8000,0.0118108
799.6000,0.012141
799.4000,0.0125506
799.2000,0.0123544
799.0000,0.0119566
798.8000,0.011712
798.6000,0.0119341
798.4000,0.0122256
798.2000,0.0121498
798.0000,0.0120113
797.8000,0.0121754
797.6000,0.0123474
797.4000,0.0122199
797.2000,0.0122748
797.0000,0.0122802
796.8000,0.0122539
796.6000,0.0123863
796.4000,0.0122777
796.2000,0.0120664
796.0000,0.0120444
795.8000,0.0122252
795.6000,0.0123458
795.4000,0.012298
795.2000,0.0123121
795.0000,0.0122206
794.8000,0.0118477
794.6000,0.0117626
794.4000,0.012087
794.2000,0.0122227
794.0000,0.012348
793.8000,0.0122492
793.6000,0.0118652
793.4000,0.0121638
793.2000,0.0126932
793.0000,0.0125546
792.8000,0.012145
792.6000,0.0119895
792.4000,0.0121316
792.2000,0.0122513
792.0000,0.0122191
791.8000,0.0119802
791.6000,0.0117491
791.4000,0.0122063
791.2000,0.0126117
791.0000,0.0124834
790.8000,0.0122315
790.6000,0.0119441
790.4000,0.012113
790.2000,0.0123758
790.0000,0.0121942
789.8000,0.0124311
789.6000,0.012589
789.4000,0.0121144
789.2000,0.0118453
789.0000,0.0119936
788.8000,0.0121952
788.6000,0.0122235
788.4000,0.0123022
788.2000,0.0122497
788.0000,0.0118995
787.8000,0.0119188
787.6000,0.0123785
787.4000,0.0124858
787.2000,0.0124505
787.0000,0.0121307
786.8000,0.0119344
786.6000,0.0123332
786.4000,0.0125548
786.2000,0.0124646
786.0000,0.012404
785.8000,0.0125232
785.6000,0.0125063
785.4000,0.0125127
785.2000,0.0123862
785.0000,0.0123877
784.8000,0.012311
784.6000,0.0123127
784.4000,0.0124599
784.2000,0.0123143
784.0000,0.0123903
783.8000,0.0125758
783.6000,0.012587
783.4000,0.0124947
783.2000,0.0124259
783.0000,0.0122133
782.8000,0.0120311
782.6000,0.0120845
782.4000,0.0123234
782.2000,0.0122347
782.0000,0.0118817
781.8000,0.0117287
781.6000,0.0119808
781.4000,0.0122867
781.2000,0.0125129
781.0000,0.0126782
780.8000,0.0124835
780.6000,0.0122899
780.4000,0.0122021
780.2000,0.0122408
780.0000,0.0124856
779.8000,0.0125317
779.6000,0.0122702
779.4000,0.0120603
779.2000,0.0121448
779.0000,0.0124344
778.8000,0.0126947
778.6000,0.0126862
778.4000,0.012348
778.2000,0.0121491
778.0000,0.0122064
777.8000,0.0123946
777.6000,0.0123719
777.4000,0.0124953
777.2000,0.0126044
777.0000,0.0124142
776.8000,0.012224
776.6000,0.0122202
776.4000,0.0124702
776.2000,0.012583
776.0000,0.0126043
775.8000,0.0126393
775.6000,0.0126592
775.4000,0.0123808
775.2000,0.0120869
775.0000,0.012263
774.8000,0.0124194
774.6000,0.0122105
774.4000,0.0122376
774.2000,0.0124184
774.0000,0.012393
773.8000,0.0123709
773.6000,0.0122564
773.4000,0.0119597
773.2000,0.0121419
773.0000,0.0125705
772.8000,0.0128031
772.6000,0.0127398
772.4000,0.01241
772.2000,0.0124548
772.0000,0.0124634
771.8000,0.0123972
771.6000,0.0125797
771.4000,0.0122658
771.2000,0.0118798
771.0000,0.0123638
770.8000,0.0127073
770.6000,0.0125831
770.4000,0.0126232
770.2000,0.0125283
770.0000,0.0121878
769.8000,0.0120959
769.6000,0.0123423
769.4000,0.012513
769.2000,0.0126482
769.0000,0.0126175
768.8000,0.012175
768.6000,0.0121654
768.4000,0.0125714
768.2000,0.0125148
768.0000,0.0123503
767.8000,0.0126671
767.6000,0.0128465
767.4000,0.0124601
767.2000,0.0123658
767.0000,0.0121898
766.8000,0.0120908
766.6000,0.0125167
766.4000,0.0127387
766.2000,0.0123158
766.0000,0.012182
765.8000,0.0124749
765.6000,0.0126838
765.4000,0.0127547
765.2000,0.0123172
765.0000,0.0121542
764.8000,0.0125599
764.6000,0.0127912
764.4000,0.012765
764.2000,0.0127664
764.0000,0.0124818
763.8000,0.0122898
763.6000,0.0123146
763.4000,0.0122392
763.2000,0.0121658
763.0000,0.0121125
762.8000,0.0121478
762.6000,0.0121934
762.4000,0.0123369
762.2000,0.0124608
762.0000,0.0123267
761.8000,0.0122382
761.6000,0.012156
761.4000,0.0122116
761.2000,0.0123498
761.0000,0.0122602
760.8000,0.0122033
760.6000,0.0122989
760.4000,0.0125132
760.2000,0.0125548
760.0000,0.0125779
759.8000,0.0123232
759.6000,0.0123209
759.4000,0.012657
759.2000,0.0126307
759.0000,0.0124474
758.8000,0.0121649
758.6000,0.012435
758.4000,0.0125821
758.2000,0.0124129
758.0000,0.0125815
757.8000,0.0123507
757.6000,0.0123628
757.4000,0.0125848
757.2000,0.012181
757.0000,0.0122816
756.8000,0.0125436
756.6000,0.0126076
756.4000,0.0123
756.2000,0.0121451
756.0000,0.012511
755.8000,0.0126492
755.6000,0.0125648
755.4000,0.0122919
755.2000,0.0121883
755.0000,0.0123727
754.8000,0.0126464
754.6000,0.0127237
754.4000,0.0126094
754.2000,0.0123974
754.0000,0.0124793
753.8000,0.0127075
753.6000,0.0126317
753.4000,0.0124033
753.2000,0.0125237
753.0000,0.0125997
752.8000,0.0128539
752.6000,0.0128477
752.4000,0.0124701
752.2000,0.0126455
752.0000,0.0127219
751.8000,0.012667
751.6000,0.0125695
751.4000,0.0125605
751.2000,0.0127067
751.0000,0.0127055
750.8000,0.0127558
750.6000,0.0126777
750.4000,0.012463
750.2000,0.0126952
750.0000,0.013001
749.8000,0.0128973
749.6000,0.0125343
749.4000,0.0124865
749.2000,0.0125101
749.0000,0.0125123
748.8000,0.0125365
748.6000,0.0124718
748.4000,0.0125677
748.2000,0.0124774
748.0000,0.0125495
747.8000,0.0127098
747.6000,0.0126083
747.4000,0.0125441
747.2000,0.0124758
747.0000,0.0126944
746.8000,0.0129102
746.6000,0.0127132
746.4000,0.0126471
746.2000,0.0125105
746.0000,0.0124583
745.8000,0.0125219
745.6000,0.0125994
745.4000,0.0127064
745.2000,0.0125997
745.0000,0.0125107
744.8000,0.0122404
744.6000,0.0125165
744.4000,0.012801
744.2000,0.0124288
744.0000,0.0122758
743.8000,0.0121811
743.6000,0.0123552
743.4000,0.012474
743.2000,0.0124643
743.0000,0.0124686
742.8000,0.0123854
742.6000,0.0124517
742.4000,0.0124251
742.2000,0.0124251
742.0000,0.0123891
741.8000,0.0120461
741.6000,0.0122852
741.4000,0.0126445
741.2000,0.0127112
741.0000,0.0127691
740.8000,0.0126918
740.6000,0.0127408
740.4000,0.0128749
740.2000,0.0128885
740.0000,0.0124844
739.8000,0.0126247
739.6000,0.0129176
739.4000,0.0128988
739.2000,0.0129114
739.0000,0.012935
738.8000,0.0130517
738.6000,0.0130772
738.4000,0.0128345
738.2000,0.0127722
738.0000,0.0129568
737.8000,0.0129674
737.6000,0.0128652
737.4000,0.0125404
737.2000,0.012705
737.0000,0.0129828
736.8000,0.0132664
736.6000,0.0134649
736.4000,0.012987
736.2000,0.0128499
736.0000,0.0129207
735.8000,0.0129684
735.6000,0.0132849
735.4000,0.0132774
735.2000,0.0128326
735.0000,0.0126002
734.8000,0.0127594
734.6000,0.012995
734.4000,0.0128359
734.2000,0.0129567
734.0000,0.0128968
733.8000,0.0128377
733.6000,0.0131389
733.4000,0.0131804
733.2000,0.0129407
733.0000,0.013015
732.8000,0.0133586
732.6000,0.013382
732.4000,0.0131162
732.2000,0.012929
732.0000,0.0129088
731.8000,0.0128857
731.6000,0.012964
731.4000,0.0131145
731.2000,0.0130406
731.0000,0.0129143
730.8000,0.012953
730.6000,0.0129986
730.4000,0.0131741
730.2000,0.0130679
730.0000,0.0130942
729.8000,0.013045
729.6000,0.0129
729.4000,0.0130134
729.2000,0.0129359
729.0000,0.0128773
728.8000,0.0128612
728.6000,0.0130016
728.4000,0.0132604
728.2000,0.0131802
728.0000,0.0130303
727.8000,0.0132798
727.6000,0.013324
727.4000,0.0130158
727.2000,0.0129631
727.0000,0.0131639
726.8000,0.0131781
726.6000,0.0132181
726.4000,0.0131284
726.2000,0.013126
726.0000,0.0131432
725.8000,0.0129449
725.6000,0.0132059
725.4000,0.0132165
725.2000,0.0130336
725.0000,0.0131225
724.8000,0.0132249
724.6000,0.0133824
724.4000,0.0134694
724.2000,0.0132206
724.0000,0.0131849
723.8000,0.0135003
723.6000,0.0134627
723.4000,0.0132587
723.2000,0.0133779
723.0000,0.0136144
722.8000,0.0137924
722.6000,0.013661
722.4000,0.013475
722.2000,0.0132798
722.0000,0.0132004
721.8000,0.0130542
721.6000,0.0130937
721.4000,0.0134608
721.2000,0.0133111
721.0000,0.0133855
720.8000,0.0134388
720.6000,0.0134006
720.4000,0.0133677
720.2000,0.0133097
720.0000,0.0134436
719.8000,0.0134409
719.6000,0.013657
719.4000,0.0136375
719.2000,0.0133625
719.0000,0.0132779
718.8000,0.0133039
718.6000,0.0135663
718.4000,0.0135755
718.2000,0.0134149
718.0000,0.0134178
717.8000,0.0133888
717.6000,0.0133918
717.4000,0.0135096
717.2000,0.0136039
717.0000,0.0133802
716.8000,0.0133051
716.6000,0.0135204
716.4000,0.0134465
716.2000,0.0132353
716.0000,0.0134278
715.8000,0.0135695
715.6000,0.0133661
715.4000,0.013434
715.2000,0.0133855
715.0000,0.0132713
714.8000,0.0134661
714.6000,0.0135262
714.4000,0.0134383
714.2000,0.0132971
714.0000,0.0134559
713.8000,0.0137
713.6000,0.0135172
713.4000,0.0134077
713.2000,0.0135729
713.0000,0.0136417
712.8000,0.0136232
712.6000,0.0135985
712.4000,0.0133751
712.2000,0.0132535
712.0000,0.0133055
711.8000,0.0133928
711.6000,0.0135027
711.4000,0.013468
711.2000,0.0135129
711.0000,0.0134269
710.8000,0.0133448
710.6000,0.0135392
710.4000,0.0136437
710.2000,0.0136688
710.0000,0.0136075
709.8000,0.0135062
709.6000,0.0136348
709.4000,0.0137566
709.2000,0.0135234
709.0000,0.0133679
708.8000,0.0135483
708.6000,0.0137692
708.4000,0.0136207
708.2000,0.0133949
708.0000,0.0135488
707.8000,0.0136781
707.6000,0.013767
707.4000,0.0136681
707.2000,0.0135589
707.0000,0.0136973
706.8000,0.0135573
706.6000,0.0136498
706.4000,0.0136827
706.2000,0.013582
706.0000,0.0137021
705.8000,0.0136583
705.6000,0.0135242
705.4000,0.0137919
705.2000,0.0138825
705.0000,0.0134912
704.8000,0.0136191
704.6000,0.0137059
704.4000,0.0135561
704.2000,0.013597
704.0000,0.0137132
703.8000,0.0138165
703.6000,0.0138589
703.4000,0.013781
703.2000,0.0135924
703.0000,0.0136287
702.8000,0.0137926
702.6000,0.0138658
702.4000,0.0139323
702.2000,0.0138286
702.0000,0.0138052
701.8000,0.0135837
701.6000,0.0134061
701.4000,0.0137852
701.2000,0.0136922
701.0000,0.0136593
700.8000,0.0138721
700.6000,0.013812
700.4000,0.0138069
700.2000,0.0137696
700.0000,0.0138055
699.8000,0.0137444
699.6000,0.0136145
699.4000,0.0136871
699.2000,0.013721
699.0000,0.0136983
698.8000,0.0138378
698.6000,0.0140182
698.4000,0.0138351
698.2000,0.0137163
698.0000,0.0138685
697.8000,0.0137675
697.6000,0.0136726
697.4000,0.0135758
697.2000,0.0135938
697.0000,0.0137006
696.8000,0.0136625
696.6000,0.0136678
696.4000,0.0136345
696.2000,0.0136526
696.0000,0.0138504
695.8000,0.0138953
695.6000,0.0137878
695.4000,0.013728
695.2000,0.0136384
695.0000,0.0137145
694.8000,0.0139453
694.6000,0.0138225
694.4000,0.0138876
694.2000,0.0140587
694.0000,0.0138835
693.8000,0.0138258
693.6000,0.0138316
693.4000,0.0138195
693.2000,0.0136521
693.0000,0.0137258
692.8000,0.0138479
692.6000,0.0139188
692.4000,0.0139586
692.2000,0.0137571
692.0000,0.0138893
691.8000,0.0140765
691.6000,0.0138581
691.4000,0.013855
691.2000,0.0139104
691.0000,0.0138897
690.8000,0.0139032
690.6000,0.0138418
690.4000,0.0138772
690.2000,0.0138439
690.0000,0.0138514
689.8000,0.0138549
689.6000,0.0139176
689.4000,0.0139142
689.2000,0.0139639
689.0000,0.0140142
688.8000,0.0137777
688.6000,0.0137861
688.4000,0.013844
688.2000,0.0138718
688.0000,0.0138784
687.8000,0.0138365
687.6000,0.0139132
687.4000,0.0137095
687.2000,0.0135996
687.0000,0.0136032
686.8000,0.013697
686.6000,0.0136416
686.4000,0.0135977
686.2000,0.0139934
686.0000,0.0139453
685.8000,0.0136878
685.6000,0.0138001
685.4000,0.0138715
685.2000,0.013854
685.0000,0.0139888
684.8000,0.0139258
684.6000,0.0140368
684.4000,0.0140751
684.2000,0.0136767
684.0000,0.0134722
683.8000,0.0138629
683.6000,0.0141742
683.4000,0.0139567
683.2000,0.0139003
683.0000,0.0140565
682.8000,0.0140566
682.6000,0.0139719
682.4000,0.0140566
682.2000,0.0140495
682.0000,0.0140544
681.8000,0.0141146
681.6000,0.0140494
681.4000,0.014109
681.2000,0.0141488
681.0000,0.014073
680.8000,0.0141826
680.6000,0.0142581
680.4000,0.0140721
680.2000,0.0138082
680.0000,0.0140625
679.8000,0.0143681
679.6000,0.0141765
679.4000,0.0141046
679.2000,0.0144265
679.0000,0.0145103
678.8000,0.0143732
678.6000,0.0143437
678.4000,0.0142707
678.2000,0.0142756
678.0000,0.0144346
677.8000,0.0145111
677.6000,0.0145074
677.4000,0.0143224
677.2000,0.014304
677.0000,0.0144337
676.8000,0.0142174
676.6000,0.0143657
676.4000,0.0145397
676.2000,0.0143203
676.0000,0.0143255
675.8000,0.0144551
675.6000,0.0143733
675.4000,0.0142964
675.2000,0.0144764
675.0000,0.0143154
674.8000,0.0140639
674.6000,0.0141397
674.4000,0.0140913
674.2000,0.0141552
674.0000,0.0143692
673.8000,0.0143156
673.6000,0.014193
673.4000,0.0142684
673.2000,0.0142355
673.0000,0.0142818
672.8000,0.0146204
672.6000,0.0145828
672.4000,0.0143689
672.2000,0.0141931
672.0000,0.0141842
671.8000,0.0144794
671.6000,0.0142485
671.4000,0.0141221
671.2000,0.0142263
671.0000,0.0143572
670.8000,0.0144743
670.6000,0.0142041
670.4000,0.0141936
670.2000,0.0145216
670.0000,0.0146394
669.8000,0.0145059
669.6000,0.0143119
669.4000,0.0142875
669.2000,0.0144488
669.0000,0.0145459
668.8000,0.0145391
668.6000,0.0146375
668.4000,0.0145607
668.2000,0.014398
668.0000,0.0143637
667.8000,0.0143972
667.6000,0.0146915
667.4000,0.0148265
667.2000,0.0144965
667.0000,0.0143887
666.8000,0.014325
666.6000,0.0143913
666.4000,0.0144939
666.2000,0.0144337
666.0000,0.0145996
665.8000,0.014558
665.6000,0.0145317
665.4000,0.0144307
665.2000,0.0143299
665.0000,0.0146197
664.8000,0.0147046
664.6000,0.0145558
664.4000,0.0147486
664.2000,0.0147464
664.0000,0.014589
663.8000,0.0147835
663.6000,0.014793
663.4000,0.0145746
663.2000,0.014308
663.0000,0.0142325
662.8000,0.0145594
662.6000,0.0146456
662.4000,0.0147615
662.2000,0.0148238
662.0000,0.0146703
661.8000,0.0147485
661.6000,0.0146177
661.4000,0.0145133
661.2000,0.0147235
661.0000,0.0148785
660.8000,0.0148185
660.6000,0.0147038
660.4000,0.0147546
660.2000,0.0147179
660.0000,0.0147078
659.8000,0.0148189
659.6000,0.0148024
659.4000,0.0148918
659.2000,0.0150269
659.0000,0.0149331
658.8000,0.0148148
658.6000,0.0145751
658.4000,0.014542
658.2000,0.0146774
658.0000,0.0146485
657.8000,0.0147035
657.6000,0.0145837
657.4000,0.0145269
657.2000,0.0148059
657.0000,0.0148055
656.8000,0.0145363
656.6000,0.0147097
656.4000,0.0148793
656.2000,0.014904
656.0000,0.0151378
655.8000,0.0151052
655.6000,0.0149604
655.4000,0.0148171
655.2000,0.014677
655.0000,0.0147499
654.8000,0.0148442
654.6000,0.0148641
654.4000,0.0149956
654.2000,0.0149822
654.0000,0.0149884
653.8000,0.0150346
653.6000,0.0149815
653.4000,0.014817
653.2000,0.0147962
653.0000,0.0150798
652.8000,0.0150147
652.6000,0.0147052
652.4000,0.014688
652.2000,0.0148417
652.0000,0.0147309
651.8000,0.014742
651.6000,0.0148601
651.4000,0.015003
651.2000,0.0148115
651.0000,0.0147256
650.8000,0.0149494
650.6000,0.015057
650.4000,0.0150031
650.2000,0.0148438
650.0000,0.0148897
649.8000,0.0151198
649.6000,0.0150164
649.4000,0.014692
649.2000,0.0148571
649.0000,0.0147872
648.8000,0.0145827
648.6000,0.0146862
648.4000,0.0147035
648.2000,0.0146917
648.0000,0.0148858
647.8000,0.0151443
647.6000,0.0152359
647.4000,0.0152561
647.2000,0.015251
647.0000,0.0150555
646.8000,0.0149046
646.6000,0.0148792
646.4000,0.0150551
646.2000,0.0150257
646.0000,0.0150456
645.8000,0.0151525
645.6000,0.0150048
645.4000,0.0151716
645.2000,0.0152516
645.0000,0.0150004
644.8000,0.0147555
644.6000,0.0147266
644.4000,0.0147773
644.2000,0.0150089
644.0000,0.0151988
643.8000,0.0151994
643.6000,0.0152982
643.4000,0.0152192
643.2000,0.0151142
643.0000,0.0152189
642.8000,0.0151347
642.6000,0.0150238
642.4000,0.0148927
642.2000,0.0149262
642.0000,0.0150656
641.8000,0.0150661
641.6000,0.015029
641.4000,0.0149292
641.2000,0.0149793
641.0000,0.0150566
640.8000,0.0151556
640.6000,0.0149719
640.4000,0.014895
640.2000,0.0150783
640.0000,0.0151773
639.8000,0.0152025
639.6000,0.0152262
639.4000,0.0153307
639.2000,0.0154748
639.0000,0.015407
638.8000,0.0152242
638.6000,0.0150214
638.4000,0.0150712
638.2000,0.0154135
638.0000,0.0152351
637.8000,0.0150534
637.6000,0.015102
637.4000,0.0152641
637.2000,0.0152425
637.0000,0.0150489
636.8000,0.0152664
636.6000,0.0153762
636.4000,0.0153996
636.2000,0.015535
636.0000,0.0154073
635.8000,0.0154337
635.6000,0.0152824
635.4000,0.0151524
635.2000,0.0153878
635.0000,0.0153938
634.8000,0.0153553
634.6000,0.0153224
634.4000,0.0153071
634.2000,0.0154161
634.0000,0.0154228
633.8000,0.0152704
633.6000,0.0151775
633.4000,0.0152592
633.2000,0.0153387
633.0000,0.0152132
632.8000,0.0152415
632.6000,0.0152829
632.4000,0.015354
632.2000,0.0154215
632.0000,0.0153315
631.8000,0.0154801
631.6000,0.015493
631.4000,0.0153039
631.2000,0.0152515
631.0000,0.0152086
630.8000,0.0152667
630.6000,0.0153223
630.4000,0.0152972
630.2000,0.0153603
630.0000,0.0154002
629.8000,0.0154157
629.6000,0.0155148
629.4000,0.015502
629.2000,0.0154623
629.0000,0.0154157
628.8000,0.0151703
628.6000,0.0153517
628.4000,0.015551
628.2000,0.0153407
628.0000,0.015423
627.8000,0.0155414
627.6000,0.0156131
627.4000,0.015729
627.2000,0.015639
627.0000,0.0154622
626.8000,0.0153985
626.6000,0.0155279
626.4000,0.015599
626.2000,0.0156497
626.0000,0.0154628
625.8000,0.0154698
625.6000,0.0155676
625.4000,0.0154262
625.2000,0.0155176
625.0000,0.0155752
624.8000,0.0155657
624.6000,0.0154829
624.4000,0.0154644
624.2000,0.0155092
624.0000,0.0154334
623.8000,0.0153245
623.6000,0.0153023
623.4000,0.0153
623.2000,0.0155291
623.0000,0.0158663
622.8000,0.0158728
622.6000,0.015804
622.4000,0.0156616
622.2000,0.0155805
622.0000,0.0154932
621.8000,0.0154817
621.6000,0.0154631
621.4000,0.0156544
621.2000,0.0158566
621.0000,0.0155331
620.8000,0.0154752
620.6000,0.0156801
620.4000,0.0155563
620.2000,0.0156026
620.0000,0.0156776
619.8000,0.0157776
619.6000,0.0156545
619.4000,0.0156309
619.2000,0.0157321
619.0000,0.0157083
618.8000,0.0158849
618.6000,0.0159231
618.4000,0.0157332
618.2000,0.0157312
618.0000,0.0157661
617.8000,0.0157838
617.6000,0.0157087
617.4000,0.0157002
617.2000,0.0157468
617.0000,0.0157183
616.8000,0.0158168
616.6000,0.0159915
616.4000,0.0158492
616.2000,0.0158069
616.0000,0.0159722
615.8000,0.0158234
615.6000,0.0156221
615.4000,0.0157346
615.2000,0.015824
615.0000,0.0158367
614.8000,0.0158156
614.6000,0.0157524
614.4000,0.0158957
614.2000,0.0157796
614.0000,0.0157278
613.8000,0.0158235
613.6000,0.0158499
613.4000,0.0158749
613.2000,0.0158156
613.0000,0.0158482
612.8000,0.0159082
612.6000,0.0158978
612.4000,0.0159883
612.2000,0.0161141
612.0000,0.0161886
611.8000,0.0161159
611.6000,0.0160783
611.4000,0.0160928
611.2000,0.0158885
611.0000,0.0157029
610.8000,0.01572
610.6000,0.0158824
610.4000,0.0160157
610.2000,0.0159734
610.0000,0.0160946
609.8000,0.016385
609.6000,0.0162319
609.4000,0.0158137
609.2000,0.0157479
609.0000,0.0159143
608.8000,0.0160084
608.6000,0.0160847
608.4000,0.0159696
608.2000,0.0158056
608.0000,0.0159636
607.8000,0.0161794
607.6000,0.0159812
607.4000,0.0158873
607.2000,0.0160447
607.0000,0.0160738
606.8000,0.0162947
606.6000,0.0161536
606.4000,0.0158513
606.2000,0.0159341
606.0000,0.0160604
605.8000,0.0160219
605.6000,0.015905
605.4000,0.0159363
605.2000,0.0159739
605.0000,0.0159787
604.8000,0.0161006
604.6000,0.0161302
604.4000,0.0160383
604.2000,0.0161809
604.0000,0.0162917
603.8000,0.0161675
603.6000,0.0160479
603.4000,0.0160893
603.2000,0.0161446
603.0000,0.0161473
602.8000,0.0160003
602.6000,0.015912
602.4000,0.0160509
602.2000,0.0162323
602.0000,0.016092
601.8000,0.0162288
601.6000,0.0165779
601.4000,0.0165632
601.2000,0.0163958
601.0000,0.0161023
600.8000,0.0159635
600.6000,0.0160775
600.4000,0.0162726
600.2000,0.0164951
600.0000,0.0166341
599.8000,0.0165196
599.6000,0.0162592
599.4000,0.0162526
599.2000,0.0163527
599.0000,0.0161254
598.8000,0.0162599
598.6000,0.0163628
598.4000,0.0163902
598.2000,0.0167365
598.0000,0.0165922
597.8000,0.0163732
597.6000,0.0164335
597.4000,0.0164303
597.2000,0.016266
597.0000,0.0162656
596.8000,0.0165995
596.6000,0.0165868
596.4000,0.016304
596.2000,0.0163368
596.0000,0.016301
595.8000,0.0162777
595.6000,0.0162618
595.4000,0.0161608
595.2000,0.0162814
595.0000,0.0163333
594.8000,0.0164124
594.6000,0.0165843
594.4000,0.0166048
594.2000,0.0164409
594.0000,0.0163822
593.8000,0.0163837
593.6000,0.0164793
593.4000,0.0165577
593.2000,0.0165242
593.0000,0.0167023
592.8000,0.016694
592.6000,0.016622
592.4000,0.0165277
592.2000,0.0165595
592.0000,0.0166419
591.8000,0.0164448
591.6000,0.0165609
591.4000,0.0166512
591.2000,0.0165089
591.0000,0.0165374
590.8000,0.0164625
590.6000,0.0165133
590.4000,0.0166451
590.2000,0.0165369
590.0000,0.0166596
589.8000,0.0167596
589.6000,0.0165517
589.4000,0.0165747
589.2000,0.0166942
589.0000,0.0168333
588.8000,0.0171019
588.6000,0.0169979
588.4000,0.0165878
588.2000,0.0163998
588.0000,0.0164048
587.8000,0.016511
587.6000,0.0165048
587.4000,0.016514
587.2000,0.0167821
587.0000,0.0168171
586.8000,0.0167169
586.6000,0.0167249
586.4000,0.016629
586.2000,0.0165709
586.0000,0.0165819
585.8000,0.0166284
585.6000,0.0167281
585.4000,0.0169033
585.2000,0.0167513
585.0000,0.016587
584.8000,0.0167109
584.6000,0.0165837
584.4000,0.0166512
584.2000,0.0170464
584.0000,0.017082
583.8000,0.0168678
583.6000,0.0166582
583.4000,0.0167591
583.2000,0.0169452
583.0000,0.0168702
582.8000,0.0167844
582.6000,0.0167641
582.4000,0.0167226
582.2000,0.0167225
582.0000,0.0167815
581.8000,0.0170589
581.6000,0.0173019
581.4000,0.017035
581.2000,0.016886
581.0000,0.0168916
580.8000,0.0169312
580.6000,0.017045
580.4000,0.0170955
580.2000,0.0168707
580.0000,0.0167419
579.8000,0.0170194
579.6000,0.0169812
579.4000,0.0168847
579.2000,0.0171125
579.0000,0.0170692
578.8000,0.0169505
578.6000,0.0168921
578.4000,0.0167853
578.2000,0.0169047
578.0000,0.0169935
577.8000,0.016983
577.6000,0.016957
577.4000,0.0171646
577.2000,0.0173748
577.0000,0.0171742
576.8000,0.0169931
576.6000,0.0171168
576.4000,0.0173348
576.2000,0.0171806
576.0000,0.0169688
575.8000,0.0169893
575.6000,0.0172461
575.4000,0.0172046
575.2000,0.0169688
575.0000,0.0169476
574.8000,0.0170271
574.6000,0.0171534
574.4000,0.017248
574.2000,0.0172378
574.0000,0.0171298
573.8000,0.0170326
573.6000,0.0169821
573.4000,0.017188
573.2000,0.0173198
573.0000,0.0173675
572.8000,0.0173943
572.6000,0.0170348
572.4000,0.0170656
572.2000,0.0174119
572.0000,0.0174634
571.8000,0.0174363
571.6000,0.0174107
571.4000,0.0174072
571.2000,0.0172444
571.0000,0.0170829
570.8000,0.017109
570.6000,0.0172274
570.4000,0.017422
570.2000,0.0174465
570.0000,0.0173569
569.8000,0.0173716
569.6000,0.0172586
569.4000,0.0171063
569.2000,0.0172677
569.0000,0.0177338
568.8000,0.0175669
568.6000,0.0172239
568.4000,0.0172534
568.2000,0.0172236
568.0000,0.0174156
567.8000,0.0174499
567.6000,0.0173895
567.4000,0.0174444
567.2000,0.0174221
567.0000,0.0174781
566.8000,0.0175677
566.6000,0.0175292
566.4000,0.0173777
566.2000,0.0173944
566.0000,0.0174312
565.8000,0.0173299
565.6000,0.0174378
565.4000,0.0173841
565.2000,0.017447
565.0000,0.0173976
564.8000,0.0174606
564.6000,0.0176484
564.4000,0.0176282
564.2000,0.0176869
564.0000,0.0173866
563.8000,0.0173884
563.6000,0.0173382
563.4000,0.0171165
563.2000,0.0173798
563.0000,0.0175542
562.8000,0.0173461
562.6000,0.0172401
562.4000,0.0175544
562.2000,0.0177506
562.0000,0.0175877
561.8000,0.017587
561.6000,0.0174555
561.4000,0.0172204
561.2000,0.0173445
561.0000,0.0176335
560.8000,0.0176786
560.6000,0.0175408
560.4000,0.017534
560.2000,0.0174671
560.0000,0.0175222
559.8000,0.0176913
559.6000,0.0178554
559.4000,0.0178211
559.2000,0.0176755
559.0000,0.0176725
558.8000,0.0176221
558.6000,0.0175563
558.4000,0.0176872
558.2000,0.0180032
558.0000,0.0178829
557.8000,0.0177219
557.6000,0.017913
557.4000,0.0178061
557.2000,0.0177856
557.0000,0.0179713
556.8000,0.017855
556.6000,0.0176903
556.4000,0.0175911
556.2000,0.0176972
556.0000,0.0177771
555.8000,0.0178894
555.6000,0.0179372
555.4000,0.0179782
555.2000,0.0180485
555.0000,0.0177967
554.8000,0.0177607
554.6000,0.0177582
554.4000,0.0177781
554.2000,0.0180676
554.0000,0.0179634
553.8000,0.0179791
553.6000,0.0180698
553.4000,0.0179063
553.2000,0.0181103
553.0000,0.0180281
552.8000,0.01786
552.6000,0.0179809
552.4000,0.0181542
552.2000,0.0182297
552.0000,0.0183426
551.8000,0.0184335
551.6000,0.0182025
551.4000,0.0178573
551.2000,0.0177725
551.0000,0.0179729
550.8000,0.0181122
550.6000,0.0182451
550.4000,0.017956
550.2000,0.0179642
550.0000,0.0182492
549.8000,0.018051
549.6000,0.0181161
549.4000,0.0182395
549.2000,0.0182052
549.0000,0.018231
548.8000,0.0181977
548.6000,0.0181275
548.4000,0.0182215
548.2000,0.0183152
548.0000,0.0183013
547.8000,0.0182511
547.6000,0.0181414
547.4000,0.0183064
547.2000,0.0183405
547.0000,0.0181205
546.8000,0.0180646
546.6000,0.0179346
546.4000,0.0181318
546.2000,0.0182626
546.0000,0.0182332
545.8000,0.018287
545.6000,0.0182572
545.4000,0.0185391
545.2000,0.0183031
545.0000,0.0179679
544.8000,0.0179181
544.6000,0.0179976
544.4000,0.0181834
544.2000,0.0183507
544.0000,0.0183899
543.8000,0.0182896
543.6000,0.0182987
543.4000,0.018404
543.2000,0.0185212
543.0000,0.0183171
542.8000,0.0181075
542.6000,0.0182059
542.4000,0.0184063
542.2000,0.0183232
542.0000,0.0183647
541.8000,0.0184114
541.6000,0.0183147
541.4000,0.0183851
541.2000,0.0186166
541.0000,0.0185643
540.8000,0.0184685
540.6000,0.0185705
540.4000,0.018432
540.2000,0.0184807
540.0000,0.0185179
539.8000,0.0184204
539.6000,0.0184791
539.4000,0.0185102
539.2000,0.0185017
539.0000,0.0185408
538.8000,0.0185094
538.6000,0.0184543
538.4000,0.0184582
538.2000,0.0186825
538.0000,0.0188789
537.8000,0.0187327
537.6000,0.0185264
537.4000,0.0184516
537.2000,0.0187685
537.0000,0.0186868
536.8000,0.0181861
536.6000,0.0185007
536.4000,0.0186929
536.2000,0.0185438
536.0000,0.0186548
535.8000,0.0187779
535.6000,0.0186424
535.4000,0.018676
535.2000,0.0187823
535.0000,0.0186691
534.8000,0.0186352
534.6000,0.0185324
534.4000,0.018715
534.2000,0.0189716
534.0000,0.0187608
533.8000,0.0187194
533.6000,0.0187938
533.4000,0.0186798
533.2000,0.018718
533.0000,0.0187991
532.8000,0.0189521
532.6000,0.0189044
532.4000,0.0189521
532.2000,0.0189208
532.0000,0.0186308
531.8000,0.0184674
531.6000,0.0187217
531.4000,0.0188371
531.2000,0.0188091
531.0000,0.0190105
530.8000,0.0188073
530.6000,0.0187459
530.4000,0.0188464
530.2000,0.0189725
530.0000,0.018985
529.8000,0.0191557
529.6000,0.0193135
529.4000,0.0192067
529.2000,0.0190594
529.0000,0.0188839
528.8000,0.0189951
528.6000,0.0190729
528.4000,0.0190711
528.2000,0.0191468
528.0000,0.0190633
527.8000,0.0189961
527.6000,0.0191177
527.4000,0.0191564
527.2000,0.0191509
527.0000,0.019231
526.8000,0.0192714
526.6000,0.0191178
526.4000,0.0190359
526.2000,0.0190419
526.0000,0.0191189
525.8000,0.0192211
525.6000,0.0190099
525.4000,0.018977
525.2000,0.0192611
525.0000,0.0193621
524.8000,0.0194309
524.6000,0.019473
524.4000,0.0192914
524.2000,0.0191256
524.0000,0.0192594
523.8000,0.0193186
523.6000,0.0192418
523.4000,0.0193565
523.2000,0.0193724
523.0000,0.0191941
522.8000,0.0193751
522.6000,0.0195615
522.4000,0.0192456
522.2000,0.0192261
522.0000,0.0195616
521.8000,0.0194331
521.6000,0.0193564
521.4000,0.0193731
521.2000,0.0192329
521.0000,0.0191301
520.8000,0.0191826
520.6000,0.0192245
520.4000,0.0191465
520.2000,0.01941
520.0000,0.0196929
519.8000,0.0197256
519.6000,0.0195667
519.4000,0.0193717
519.2000,0.0194997
519.0000,0.0195848
518.8000,0.0192868
518.6000,0.0192327
518.4000,0.0195076
518.2000,0.0197206
518.0000,0.0196361
517.8000,0.0197167
517.6000,0.0197314
517.4000,0.0195241
517.2000,0.0195508
517.0000,0.0193548
516.8000,0.0193646
516.6000,0.019519
516.4000,0.019457
516.2000,0.0195466
516.0000,0.0196082
515.8000,0.0194751
515.6000,0.0195422
515.4000,0.019904
515.2000,0.0200748
515.0000,0.0198966
514.8000,0.0198815
514.6000,0.0197725
514.4000,0.0194656
514.2000,0.0196342
514.0000,0.0199014
513.8000,0.0198651
513.6000,0.0198401
513.4000,0.0199109
513.2000,0.0198261
513.0000,0.0197465
512.8000,0.0199166
512.6000,0.0199129
512.4000,0.0197859
512.2000,0.0198992
512.0000,0.019761
511.8000,0.0199727
511.6000,0.0203189
511.4000,0.0202465
511.2000,0.0201663
511.0000,0.0199953
510.8000,0.0200471
510.6000,0.0201044
510.4000,0.0199603
510.2000,0.0198277
510.0000,0.0197109
509.8000,0.0196306
509.6000,0.019774
509.4000,0.0198959
509.2000,0.019995
509.0000,0.0199227
508.8000,0.0200724
508.6000,0.0200614
508.4000,0.0199412
508.2000,0.0200975
508.0000,0.0199936
507.8000,0.0200111
507.6000,0.0202601
507.4000,0.020348
507.2000,0.0203601
507.0000,0.0201552
506.8000,0.0202185
506.6000,0.0206068
506.4000,0.0204897
506.2000,0.0201017
506.0000,0.0199942
505.8000,0.0202403
505.6000,0.0202666
505.4000,0.0202791
505.2000,0.0203336
505.0000,0.0202508
504.8000,0.0203265
504.6000,0.0202609
504.4000,0.0202695
504.2000,0.0205192
504.0000,0.0205084
503.8000,0.0204901
503.6000,0.0204638
503.4000,0.0203372
503.2000,0.0202889
503.0000,0.0203883
502.8000,0.0205622
502.6000,0.0205168
502.4000,0.0205833
502.2000,0.0204545
502.0000,0.0203644
501.8000,0.0205688
501.6000,0.0204748
501.4000,0.0203849
501.2000,0.0205927
501.0000,0.020557
500.8000,0.0204226
500.6000,0.0207328
500.4000,0.0207871
500.2000,0.020433
500.0000,0.0201963
499.8000,0.0204094
499.6000,0.0206533
499.4000,0.0205177
499.2000,0.0204506
499.0000,0.0205026
498.8000,0.0206119
498.6000,0.0206756
498.4000,0.0207733
498.2000,0.0206643
498.0000,0.0205285
497.8000,0.0207894
497.6000,0.0207849
497.4000,0.0207485
497.2000,0.0208705
497.0000,0.020824
496.8000,0.020938
496.6000,0.020962
496.4000,0.0208893
496.2000,0.020884
496.0000,0.0207728
495.8000,0.0208372
495.6000,0.021075
495.4000,0.0209377
495.2000,0.0208544
495.0000,0.0205852
494.8000,0.0205633
494.6000,0.0209356
494.4000,0.020958
494.2000,0.0209441
494.0000,0.0213773
493.8000,0.0214493
493.6000,0.0209909
493.4000,0.0210248
493.2000,0.0209075
493.0000,0.0208359
492.8000,0.0209464
492.6000,0.0209623
492.4000,0.0208536
492.2000,0.0209379
492.0000,0.0210964
491.8000,0.0211181
491.6000,0.0212796
491.4000,0.0213763
491.2000,0.0213389
491.0000,0.0211928
490.8000,0.021103
490.6000,0.0212629
490.4000,0.0215998
490.2000,0.0214873
490.0000,0.0212057
489.8000,0.0213501
489.6000,0.0215553
489.4000,0.0215275
489.2000,0.0214658
489.0000,0.0216139
488.8000,0.0214684
488.6000,0.0210843
488.4000,0.0214341
488.2000,0.0217405
488.0000,0.0215243
487.8000,0.0218741
487.6000,0.0219401
487.4000,0.021403
487.2000,0.0214147
487.0000,0.0215518
486.8000,0.0215831
486.6000,0.0214365
486.4000,0.0215045
486.2000,0.0218285
486.0000,0.0218239
485.8000,0.021661
485.6000,0.0217035
485.4000,0.0220885
485.2000,0.0220747
485.0000,0.0220029
484.8000,0.022017
484.6000,0.0217345
484.4000,0.0216077
484.2000,0.0218699
484.0000,0.021965
483.8000,0.0217973
483.6000,0.0218383
483.4000,0.0219103
483.2000,0.0218307
483.0000,0.0218334
482.8000,0.0219
482.6000,0.0220458
482.4000,0.0221984
482.2000,0.0223315
482.0000,0.0223328
481.8000,0.0221913
481.6000,0.022238
481.4000,0.0221342
481.2000,0.0222399
481.0000,0.0224373
480.8000,0.0223367
480.6000,0.0225378
480.4000,0.0224776
480.2000,0.022062
480.0000,0.0221997
479.8000,0.0227597
479.6000,0.0227218
479.4000,0.0225226
479.2000,0.0225211
479.0000,0.0226073
478.8000,0.0226059
478.6000,0.0226635
478.4000,0.0229396
478.2000,0.0228666
478.0000,0.0228034
477.8000,0.0226863
477.6000,0.02253
477.4000,0.0224648
477.2000,0.0225851
477.0000,0.0227053
476.8000,0.0228272
476.6000,0.0230018
476.4000,0.0229213
476.2000,0.0227594
476.0000,0.0227158
475.8000,0.0228008
475.6000,0.0230656
475.4000,0.023253
475.2000,0.0232527
475.0000,0.0231048
474.8000,0.0229277
474.6000,0.0229535
474.4000,0.0230483
474.2000,0.0230665
474.0000,0.023123
473.8000,0.0232039
473.6000,0.0232821
473.4000,0.0232815
473.2000,0.0233468
473.0000,0.0233985
472.8000,0.0233693
472.6000,0.0234051
472.4000,0.0237288
472.2000,0.0237745
472.0000,0.023669
471.8000,0.0235941
471.6000,0.0234139
471.4000,0.0236346
471.2000,0.023749
471.0000,0.02376
470.8000,0.0239278
470.6000,0.0241661
470.4000,0.0239158
470.2000,0.0239317
470.0000,0.0240759
469.8000,0.0242151
469.6000,0.0242101
469.4000,0.024068
469.2000,0.0240792
469.0000,0.0240872
468.8000,0.0245162
468.6000,0.0245888
468.4000,0.0242565
468.2000,0.0242245
468.0000,0.024532
467.8000,0.0246883
467.6000,0.0247301
467.4000,0.0247914
467.2000,0.024578
467.0000,0.0246885
466.8000,0.0248511
466.6000,0.0245615
466.4000,0.0246816
466.2000,0.0249887
466.0000,0.025059
465.8000,0.0250732
465.6000,0.025018
465.4000,0.0250142
465.2000,0.0251382
465.0000,0.0252009
464.8000,0.0253062
464.6000,0.025198
464.4000,0.0251287
464.2000,0.0254279
464.0000,0.0255913
463.8000,0.0254378
463.6000,0.0253786
463.4000,0.0256135
463.2000,0.0258709
463.0000,0.0260676
462.8000,0.0260027
462.6000,0.0258104
462.4000,0.0254296
462.2000,0.0258214
462.0000,0.0265266
461.8000,0.0264072
461.6000,0.0263711
461.4000,0.0265209
461.2000,0.0263444
461.0000,0.0261296
460.8000,0.0264617
460.6000,0.0267025
460.4000,0.0266042
460.2000,0.0266228
460.0000,0.0266658
459.8000,0.0267313
459.6000,0.026726
459.4000,0.0268401
459.2000,0.0270816
459.0000,0.0271677
458.8000,0.0270684
458.6000,0.0270572
458.4000,0.0272763
458.2000,0.0275896
458.0000,0.0276272
457.8000,0.0274917
457.6000,0.0278156
457.4000,0.0279113
457.2000,0.0278133
457.0000,0.0278414
456.8000,0.0279288
456.6000,0.028075
456.4000,0.0281979
456.2000,0.028295
456.0000,0.0284375
455.8000,0.0282885
455.6000,0.028034
455.4000,0.0283054
455.2000,0.0286842
455.0000,0.0286486
454.8000,0.0287501
454.6000,0.0290116
454.4000,0.0290778
454.2000,0.0292525
454.0000,0.0289149
453.8000,0.0289462
453.6000,0.0294205
453.4000,0.0296192
453.2000,0.029807
453.0000,0.0297793
452.8000,0.0300201
452.6000,0.0300612
452.4000,0.0300495
452.2000,0.0301702
452.0000,0.0302085
451.8000,0.0304825
451.6000,0.0306436
451.4000,0.0306026
451.2000,0.030496
451.0000,0.0303524
450.8000,0.0305642
450.6000,0.0306116
450.4000,0.0305871
450.2000,0.0307966
450.0000,0.0309803
449.8000,0.0312411
449.6000,0.0312849
449.4000,0.0311706
449.2000,0.0313345
449.0000,0.0314729
448.8000,0.0315237
448.6000,0.0315182
448.4000,0.0315698
448.2000,0.0319109
448.0000,0.0320509
447.8000,0.0325058
447.6000,0.0324601
447.4000,0.0322442
447.2000,0.0327263
447.0000,0.0329577
446.8000,0.0327872
446.6000,0.0329442
446.4000,0.0329254
446.2000,0.0327569
446.0000,0.0332752
445.8000,0.0335507
445.6000,0.0335124
445.4000,0.033635
445.2000,0.033573
445.0000,0.033677
444.8000,0.0342342
444.6000,0.0342144
444.4000,0.0339927
444.2000,0.0342593
444.0000,0.034282
443.8000,0.034099
443.6000,0.0343961
443.4000,0.0347252
443.2000,0.0350313
443.0000,0.0351362
442.8000,0.0351143
442.6000,0.0353372
442.4000,0.0351671
442.2000,0.0352934
442.0000,0.0358491
441.8000,0.0358942
441.6000,0.0354893
441.4000,0.0356352
441.2000,0.0359668
441.0000,0.0359898
440.8000,0.0364016
440.6000,0.0367066
440.4000,0.0367423
440.2000,0.0368957
440.0000,0.036888
439.8000,0.0370028
439.6000,0.0372586
439.4000,0.0370063
439.2000,0.0369415
439.0000,0.0371369
438.8000,0.0371835
438.6000,0.0377009
438.4000,0.0382472
438.2000,0.0383379
438.0000,0.0380397
437.8000,0.0378507
437.6000,0.0380502
437.4000,0.0383729
437.2000,0.0385763
437.0000,0.0387269
436.8000,0.0390341
436.6000,0.0389615
436.4000,0.0389616
436.2000,0.0392225
436.0000,0.0391323
435.8000,0.0388815
435.6000,0.0388326
435.4000,0.0393106
435.2000,0.0395992
435.0000,0.0396385
434.8000,0.0399095
434.6000,0.0401826
434.4000,0.040143
434.2000,0.0396832
434.0000,0.0398694
433.8000,0.0403645
433.6000,0.0405501
433.4000,0.0405767
433.2000,0.0404576
433.0000,0.0405751
432.8000,0.040955
432.6000,0.0412341
432.4000,0.0413603
432.2000,0.041397
432.0000,0.0414829
431.8000,0.0418155
431.6000,0.0416642
431.4000,0.0415346
431.2000,0.0418136
431.0000,0.041842
430.8000,0.041812
430.6000,0.0420177
430.4000,0.0419569
430.2000,0.0418137
430.0000,0.042446
429.8000,0.0427064
429.6000,0.0426677
429.4000,0.0428517
429.2000,0.0427826
429.0000,0.0427974
428.8000,0.0429277
428.6000,0.0433121
428.4000,0.0434038
428.2000,0.0433823
428.0000,0.0439399
427.8000,0.0437367
427.6000,0.0435554
427.4000,0.0441659
427.2000,0.0440674
427.0000,0.0439547
426.8000,0.0440054
426.6000,0.0439364
426.4000,0.0442471
426.2000,0.0444517
426.0000,0.0446223
425.8000,0.044849
425.6000,0.0446554
425.4000,0.0445685
425.2000,0.0448195
425.0000,0.0449176
424.8000,0.0454897
424.6000,0.0457966
424.4000,0.0454161
424.2000,0.045597
424.0000,0.0455157
423.8000,0.0451488
423.6000,0.0457176
423.4000,0.0460257
423.2000,0.0458141
423.0000,0.0461545
422.8000,0.0464456
422.6000,0.0464622
422.4000,0.0465062
422.2000,0.046706
422.0000,0.0468513
421.8000,0.0470461
421.6000,0.0469966
421.4000,0.0469588
421.2000,0.0474319
421.0000,0.0474218
420.8000,0.0474593
420.6000,0.0477946
420.4000,0.0475738
420.2000,0.0476521
420.0000,0.0478901
419.8000,0.0476067
419.6000,0.0477333
419.4000,0.0480627
419.2000,0.0481024
419.0000,0.0481892
418.8000,0.0487563
418.6000,0.0491078
418.4000,0.049076
418.2000,0.0486697
418.0000,0.0486891
417.8000,0.0490333
417.6000,0.0489707
417.4000,0.0492165
417.2000,0.0492296
417.0000,0.04925
416.8000,0.0496907
416.6000,0.0501826
416.4000,0.0501922
416.2000,0.0500462
416.0000,0.0500543
415.8000,0.0501809
415.6000,0.050344
415.4000,0.0501115
415.2000,0.0500438
415.0000,0.050494
414.8000,0.0509434
414.6000,0.0511483
414.4000,0.0511832
414.2000,0.0510553
414.0000,0.0508661
413.8000,0.0512748
413.6000,0.0515363
413.4000,0.0514861
413.2000,0.0513779
413.0000,0.0514033
412.8000,0.0517765
412.6000,0.0522393
412.4000,0.0520759
412.2000,0.0519463
412.0000,0.0523135
411.8000,0.0523257
411.6000,0.0526843
411.4000,0.0526515
411.2000,0.0524695
411.0000,0.0531378
410.8000,0.0534203
410.6000,0.0528915
410.4000,0.0526325
410.2000,0.0526645
410.0000,0.0539219
409.8000,0.053701
409.6000,0.0533664
409.4000,0.0533414
409.2000,0.0533054
409.0000,0.0537368
408.8000,0.0542962
408.6000,0.0542871
408.4000,0.0544167
408.2000,0.0541815
408.0000,0.0541832
407.8000,0.0546503
407.6000,0.0545712
407.4000,0.0543012
407.2000,0.0546813
407.0000,0.0551538
406.8000,0.054943
406.6000,0.0549569
406.4000,0.0557492
406.2000,0.0561339
406.0000,0.0557494
405.8000,0.0558155
405.6000,0.0559173
405.4000,0.0560124
405.2000,0.0565545
405.0000,0.0566379
404.8000,0.0564222
404.6000,0.0561616
404.4000,0.0560886
404.2000,0.0561347
404.0000,0.0564993
403.8000,0.0564908
403.6000,0.0567936
403.4000,0.0572449
403.2000,0.0573111
403.0000,0.0575896
402.8000,0.057902
402.6000,0.0580715
402.4000,0.0575868
402.2000,0.0577786
402.0000,0.058464
401.8000,0.0583097
401.6000,0.0582005
401.4000,0.0584303
401.2000,0.0589121
401.0000,0.058845
400.8000,0.0588084
400.6000,0.0593327
400.4000,0.059467
400.2000,0.0597456
400.0000,0.0592564
399.8000,0.0590438
399.6000,0.0592326
399.4000,0.0598022
399.2000,0.0603624
399.0000,0.059906
398.8000,0.0594712
398.6000,0.0596429
398.4000,0.0599382
398.2000,0.0600935
398.0000,0.0602333
397.8000,0.060215
397.6000,0.0605395
397.4000,0.0606876
397.2000,0.0607764
397.0000,0.0606543
396.8000,0.0607697
396.6000,0.0607688
396.4000,0.0607967
396.2000,0.0614711
396.0000,0.0614821
395.8000,0.0613502
395.6000,0.0614238
395.4000,0.0621042
395.2000,0.0622235
395.0000,0.0623969
394.8000,0.0625749
394.6000,0.0622839
394.4000,0.0622813
394.2000,0.0623251
394.0000,0.062743
393.8000,0.0626703
393.6000,0.0629841
393.4000,0.0632915
393.2000,0.0633317
393.0000,0.0636657
392.8000,0.0634981
392.6000,0.0635839
392.4000,0.0639327
392.2000,0.0637461
392.0000,0.0641379
391.8000,0.0644008
391.6000,0.0640826
391.4000,0.0641755
391.2000,0.0642286
391.0000,0.0643219
390.8000,0.0643537
390.6000,0.0643585
390.4000,0.064962
390.2000,0.0655846
390.0000,0.0656921
389.8000,0.0655747
389.6000,0.0655017
389.4000,0.0655117
389.2000,0.0652592
389.0000,0.0650115
388.8000,0.0651997
388.6000,0.0655101
388.4000,0.0657342
388.2000,0.0660914
388.0000,0.0664122
387.8000,0.0665759
387.6000,0.0665215
387.4000,0.0666657
387.2000,0.0668076
387.0000,0.0664201
386.8000,0.0663111
386.6000,0.0669061
386.4000,0.067132
386.2000,0.0666122
386.0000,0.0667914
385.8000,0.0675439
385.6000,0.0677656
385.4000,0.0675068
385.2000,0.0677622
385.0000,0.0679918
384.8000,0.0682254
384.6000,0.0687333
384.4000,0.0687156
384.2000,0.0684035
384.0000,0.0682639
383.8000,0.0681026
383.6000,0.0689295
383.4000,0.0695031
383.2000,0.0693768
383.0000,0.0695583
382.8000,0.0688651
382.6000,0.0687968
382.4000,0.0693949
382.2000,0.0696985
382.0000,0.0699248
381.8000,0.0699264
381.6000,0.0700454
381.4000,0.0703222
381.2000,0.0700449
381.0000,0.0697475
380.8000,0.0700404
380.6000,0.0704291
380.4000,0.0701632
380.2000,0.0706599
380.0000,0.071174
379.8000,0.0710243
379.6000,0.0713042
379.4000,0.070764
379.2000,0.0702785
379.0000,0.0705223
378.8000,0.0705871
378.6000,0.070751
378.4000,0.0709854
378.2000,0.0713305
378.0000,0.0716898
377.8000,0.0717349
377.6000,0.0716077
377.4000,0.0716998
377.2000,0.0723689
377.0000,0.0720125
376.8000,0.0720007
376.6000,0.0726561
376.4000,0.0728799
376.2000,0.0728776
376.0000,0.0725227
375.8000,0.0727682
375.6000,0.0729134
375.4000,0.0729559
375.2000,0.0727497
375.0000,0.0731685
374.8000,0.0739463
374.6000,0.0739349
374.4000,0.0738822
374.2000,0.0736634
374.0000,0.0737029
373.8000,0.0741823
373.6000,0.0745332
373.4000,0.0742708
373.2000,0.0742384
373.0000,0.0740678
372.8000,0.0743053
372.6000,0.0750512
372.4000,0.0747954
372.2000,0.0747873
372.0000,0.0752404
371.8000,0.0755648
371.6000,0.0757454
371.4000,0.0753283
371.2000,0.0754168
371.0000,0.075739
370.8000,0.0756779
370.6000,0.0759946
370.4000,0.0764302
370.2000,0.0764878
370.0000,0.0771139
369.8000,0.0760111
369.6000,0.0766652
369.4000,0.0775029
369.2000,0.0774075
369.0000,0.0773263
368.8000,0.0769363
368.6000,0.076795
368.4000,0.0756589
368.2000,0.0758737
368.0000,0.0771799
367.8000,0.0766974
367.6000,0.0762882
367.4000,0.0765253
367.2000,0.0775246
367.0000,0.0777304
366.8000,0.0777324
366.6000,0.079067
366.4000,0.0784883
366.2000,0.0778911
366.0000,0.0790535
365.8000,0.07893
365.6000,0.0783554
365.4000,0.0788883
365.2000,0.0789137
365.0000,0.0785715
364.8000,0.0789911
364.6000,0.0788243
364.4000,0.0790313
364.2000,0.0800947
364.0000,0.0804123
363.8000,0.0806843
363.6000,0.0801703
363.4000,0.0797134
363.2000,0.0791552
363.0000,0.0792637
362.8000,0.0804363
362.6000,0.0809026
362.4000,0.0808229
362.2000,0.0802549
362.0000,0.0799978
361.8000,0.080379
361.6000,0.0814343
361.4000,0.0816116
361.2000,0.0809838
361.0000,0.0808081
360.8000,0.0807054
360.6000,0.0804401
360.4000,0.0806555
360.2000,0.0807714
360.0000,0.0814876
359.8000,0.0820876
359.6000,0.0815279
359.4000,0.0816774
359.2000,0.0825506
359.0000,0.0828825
358.8000,0.0823452
358.6000,0.0815775
358.4000,0.0819577
358.2000,0.0831141
358.0000,0.0832727
357.8000,0.0832089
357.6000,0.0828457
357.4000,0.0832505
357.2000,0.0836559
357.0000,0.0834578
356.8000,0.0837731
356.6000,0.0836933
356.4000,0.0834279
356.2000,0.0839228
356.0000,0.0838874
355.8000,0.0829407
355.6000,0.0831871
355.4000,0.0839328
355.2000,0.0837822
355.0000,0.0841555
354.8000,0.0847472
354.6000,0.0847787
354.4000,0.0850971
354.2000,0.0856928
354.0000,0.0849268
353.8000,0.0844174
353.6000,0.0848302
353.4000,0.0848387
353.2000,0.0855067
353.0000,0.0859525
352.8000,0.0853633
352.6000,0.0857593
352.4000,0.0865209
352.2000,0.0860755
352.0000,0.0855299
351.8000,0.0856203
351.6000,0.086182
351.4000,0.0861827
351.2000,0.0858129
351.0000,0.0861164
350.8000,0.0868889
350.6000,0.0869069
350.4000,0.0868099
350.2000,0.0870692
350.0000,0.0876596
349.8000,0.0870643
349.6000,0.0873064
349.4000,0.0885372
349.2000,0.0881533
349.0000,0.0880119
348.8000,0.0875941
348.6000,0.0875241
348.4000,0.0877327
348.2000,0.0878006
348.0000,0.087643
347.8000,0.0874715
347.6000,0.0882602
347.4000,0.0887855
347.2000,0.0889683
347.0000,0.0893153
346.8000,0.0896714
346.6000,0.0895537
346.4000,0.0888166
346.2000,0.0885184
346.0000,0.0884115
345.8000,0.0891662
345.6000,0.0897733
345.4000,0.0899185
345.2000,0.090709
345.0000,0.0907126
344.8000,0.0904506
344.6000,0.0910149
344.4000,0.0910005
344.2000,0.0907564
344.0000,0.0906259
343.8000,0.0899003
343.6000,0.0905751
343.4000,0.0907236
343.2000,0.0912178
343.0000,0.0917531
342.8000,0.0919385
342.6000,0.0922033
342.4000,0.0919151
342.2000,0.0922934
342.0000,0.0929159
341.8000,0.0929134
341.6000,0.0929216
341.4000,0.0924737
341.2000,0.0922497
341.0000,0.0932055
340.8000,0.0928307
340.6000,0.0929658
340.4000,0.0933123
340.2000,0.0935809
340.0000,0.0932553
339.8000,0.0934586
339.6000,0.0933238
339.4000,0.0938644
339.2000,0.0944028
339.0000,0.0937589
338.8000,0.0942459
338.6000,0.0945687
338.4000,0.094135
338.2000,0.0941665
338.0000,0.0942148
337.8000,0.0940499
337.6000,0.0941676
337.4000,0.094895
337.2000,0.0956495
337.0000,0.0951139
336.8000,0.0950617
336.6000,0.0962287
336.4000,0.0962452
336.2000,0.0957934
336.0000,0.0949246
335.8000,0.0953217
335.6000,0.0959128
335.4000,0.0961457
335.2000,0.0965049
335.0000,0.0961077
334.8000,0.0965113
334.6000,0.0976889
334.4000,0.0977784
334.2000,0.0971159
334.0000,0.0976025
333.8000,0.0982008
333.6000,0.0978151
333.4000,0.0972342
333.2000,0.0978797
333.0000,0.0983072
332.8000,0.0992105
332.6000,0.0998054
332.4000,0.09889
332.2000,0.0986758
332.0000,0.098165
331.8000,0.0988028
331.6000,0.099773
331.4000,0.0987557
331.2000,0.0981337
331.0000,0.0988584
330.8000,0.0997632
330.6000,0.100141
330.4000,0.100853
330.2000,0.101084
330.0000,0.101311
329.8000,0.101587
329.6000,0.101716
329.4000,0.101194
329.2000,0.100522
329.0000,0.101702
328.8000,0.102941
328.6000,0.102961
328.4000,0.103051
328.2000,0.102808
328.0000,0.10287
327.8000,0.102912
327.6000,0.102433
327.4000,0.103338
327.2000,0.103909
327.0000,0.104322
326.8000,0.104504
326.6000,0.103647
326.4000,0.102713
326.2000,0.102893
326.0000,0.103778
325.8000,0.10439
325.6000,0.104826
325.4000,0.105026
325.2000,0.105181
325.0000,0.105779
324.8000,0.105796
324.6000,0.10596
324.4000,0.106385
324.2000,0.106394
324.0000,0.106713
323.8000,0.106007
323.6000,0.106075
323.4000,0.106534
323.2000,0.106798
323.0000,0.107629
322.8000,0.107838
322.6000,0.107878
322.4000,0.107733
322.2000,0.107363
322.0000,0.107327
321.8000,0.107707
321.6000,0.108216
321.4000,0.108311
321.2000,0.108483
321.0000,0.109518
320.8000,0.109637
320.6000,0.109426
320.4000,0.109572
320.2000,0.109609
320.0000,0.109225
319.8000,0.109083
319.6000,0.109104
319.4000,0.110158
319.2000,0.111151
319.0000,0.111263
318.8000,0.110467
318.6000,0.109391
318.4000,0.111587
318.2000,0.111744
318.0000,0.111263
317.8000,0.111805
317.6000,0.111989
317.4000,0.113326
317.2000,0.11214
317.0000,0.111433
316.8000,0.112748
316.6000,0.112511
316.4000,0.112462
316.2000,0.113167
316.0000,0.113425
315.8000,0.114647
315.6000,0.114774
315.4000,0.114528
315.2000,0.115478
315.0000,0.114102
314.8000,0.11469
314.6000,0.115695
314.4000,0.114373
314.2000,0.115213
314.0000,0.114829
313.8000,0.114723
313.6000,0.116288
313.4000,0.115846
313.2000,0.115697
313.0000,0.117104
312.8000,0.117672
312.6000,0.117714
312.4000,0.117252
312.2000,0.117579
312.0000,0.116932
311.8000,0.116581
311.6000,0.118042
311.4000,0.118352
311.2000,0.118819
311.0000,0.118568
310.8000,0.118997
310.6000,0.120266
310.4000,0.119749
310.2000,0.11847
310.0000,0.119362
309.8000,0.121781
309.6000,0.12089
309.4000,0.119291
309.2000,0.119935
309.0000,0.121683
308.8000,0.122483
308.6000,0.121163
308.4000,0.121994
308.2000,0.123023
308.0000,0.122538
307.8000,0.123649
307.6000,0.12311
307.4000,0.121511
307.2000,0.121195
307.0000,0.121092
306.8000,0.122625
306.6000,0.124151
306.4000,0.123925
306.2000,0.122104
306.0000,0.123329
305.8000,0.124748
305.6000,0.124283
305.4000,0.125063
305.2000,0.126677
305.0000,0.126446
304.8000,0.125565
304.6000,0.12636
304.4000,0.127241
304.2000,0.126344
304.0000,0.125002
303.8000,0.125564
303.6000,0.126092
303.4000,0.127381
303.2000,0.127488
303.0000,0.12712
302.8000,0.127508
302.6000,0.126986
302.4000,0.128819
302.2000,0.129103
302.0000,0.127378
301.8000,0.128888
301.6000,0.129998
301.4000,0.129465
301.2000,0.129371
301.0000,0.128597
300.8000,0.127766
300.6000,0.128374
300.4000,0.128558
300.2000,0.128768
300.0000,0.130893
299.8000,0.13177
299.6000,0.131209
299.4000,0.131722
299.2000,0.131409
299.0000,0.131145
298.8000,0.131249
298.6000,0.131932
298.4000,0.132985
298.2000,0.131103
298.0000,0.131423
297.8000,0.133271
297.6000,0.131856
297.4000,0.131531
297.2000,0.133806
297.0000,0.13403
296.8000,0.131523
296.6000,0.130704
296.4000,0.131793
296.2000,0.133658
296.0000,0.132721
295.8000,0.133333
295.6000,0.13527
295.4000,0.135049
295.2000,0.134841
295.0000,0.136304
294.8000,0.136522
294.6000,0.134799
294.4000,0.134671
294.2000,0.134879
294.0000,0.134106
293.8000,0.134802
293.6000,0.136057
293.4000,0.137353
293.2000,0.138156
293.0000,0.136359
292.8000,0.135663
292.6000,0.135147
292.4000,0.134806
292.2000,0.135613
292.0000,0.137032
291.8000,0.137978
291.6000,0.137672
291.4000,0.137129
291.2000,0.138516
291.0000,0.140443
290.8000,0.136594
290.6000,0.136594
290.4000,0.140043
290.2000,0.139613
290.0000,0.139063
289.8000,0.137096
289.6000,0.137213
289.4000,0.139254
289.2000,0.142716
289.0000,0.141899
288.8000,0.140568
288.6000,0.141989
288.4000,0.14185
288.2000,0.142585
288.0000,0.141175
287.8000,0.138654
287.6000,0.136179
287.4000,0.136468
287.2000,0.138261
287.0000,0.140086
286.8000,0.140602
286.6000,0.140369
286.4000,0.141869
286.2000,0.140377
286.0000,0.139487
285.8000,0.140057
285.6000,0.138277
285.4000,0.138019
285.2000,0.140152
285.0000,0.143425
284.8000,0.144832
284.6000,0.14166
284.4000,0.14023
284.2000,0.139823
284.0000,0.138864
283.8000,0.138563
283.6000,0.136632
283.4000,0.13641
283.2000,0.13941
283.0000,0.139755
282.8000,0.139043
282.6000,0.140069
282.4000,0.142893
282.2000,0.14524
282.0000,0.141437
281.8000,0.140783
281.6000,0.141206
281.4000,0.140968
281.2000,0.144666
281.0000,0.146551
280.8000,0.144273
280.6000,0.139474
280.4000,0.139237
280.2000,0.14133
280.0000,0.1399
279.8000,0.14001
279.6000,0.138907
279.4000,0.137397
279.2000,0.138295
279.0000,0.138677
278.8000,0.137532
278.6000,0.136259
278.4000,0.137939
278.2000,0.139432
278.0000,0.135584
277.8000,0.131099
277.6000,0.129584
277.4000,0.131412
277.2000,0.136816
277.0000,0.136196
276.8000,0.134279
276.6000,0.137047
276.4000,0.133105
276.2000,0.131656
276.0000,0.131231
275.8000,0.129196
275.6000,0.134
275.4000,0.129223
275.2000,0.126585
275.0000,0.128963
274.8000,0.127068
274.6000,0.124413
274.4000,0.121523
274.2000,0.12556
274.0000,0.130359
273.8000,0.12769
273.6000,0.123151
273.4000,0.126131
273.2000,0.130914
273.0000,0.13077
272.8000,0.130211
272.6000,0.12768
272.4000,0.120454
272.2000,0.11674
272.0000,0.115853
271.8000,0.115121
271.6000,0.119757
271.4000,0.119178
271.2000,0.115194
271.0000,0.114674
270.8000,0.111554
270.6000,0.113038
270.4000,0.11407
270.2000,0.110322
270.0000,0.109144
269.8000,0.107061
269.6000,0.106116
269.4000,0.104524
269.2000,0.103716
269.0000,0.103877
268.8000,0.0999236
268.6000,0.101324
268.4000,0.105499
268.2000,0.103953
268.0000,0.102616
267.8000,0.0977627
267.6000,0.0945158
267.4000,0.0950366
267.2000,0.0959774
267.0000,0.0958937
266.8000,0.0921472
266.6000,0.0879511
266.4000,0.0793851
266.2000,0.0769156
266.0000,0.0832744
265.8000,0.0803048
265.6000,0.0722419
265.4000,0.0702274
265.2000,0.07268
265.0000,0.0763387
264.8000,0.0830185
264.6000,0.0827215
264.4000,0.0751207
264.2000,0.0757054
264.0000,0.0730638
263.8000,0.0700991
263.6000,0.0699737
263.4000,0.066501
263.2000,0.0604592
263.0000,0.0597004
262.8000,0.0635241
262.6000,0.0645751
262.4000,0.0611668
262.2000,0.0591921
262.0000,0.0597069
261.8000,0.0548878
261.6000,0.0602389
261.4000,0.0597604
261.2000,0.0491121
261.0000,0.0478641
260.8000,0.0503792
260.6000,0.0511221
260.4000,0.0468642
260.2000,0.0435202
260.0000,0.0436869
259.8000,0.0466761
259.6000,0.0386452
259.4000,0.0340858
259.2000,0.0435168
259.0000,0.0418797
258.8000,0.0329693
258.6000,0.0354615
258.4000,0.0422919
258.2000,0.0338189
258.0000,0.0326952
257.8000,0.0340369
257.6000,0.0297546
257.4000,0.0322993
257.2000,0.0303057
257.0000,0.0352874
256.8000,0.0347153
256.6000,0.0311903
256.4000,0.0286077
256.2000,0.0217576
256.0000,0.0233386
255.8000,0.0252425
255.6000,0.0207562
255.4000,0.0223207
255.2000,0.0239605
255.0000,0.0268621
254.8000,0.0260466
254.6000,0.0182973
254.4000,0.023275
254.2000,0.0280725
254.0000,0.0233137
253.8000,0.0248377
253.6000,0.0341373
253.4000,0.0279592
253.2000,0.0230455
253.0000,0.0227331
252.8000,0.0175995
252.6000,0.0176869
252.4000,0.0245161
252.2000,0.0294555
252.0000,0.027272
251.8000,0.0213721
251.6000,0.0225832
251.4000,0.0240131
251.2000,0.0307017
251.0000,0.0361193
250.8000,0.0307331
250.6000,0.0207151
250.4000,0.0144793
250.2000,0.0233565
250.0000,0.0204447
249.8000,0.0162667
249.6000,0.0216008
249.4000,0.0281362
249.2000,0.0319896
249.0000,0.0288716
248.8000,0.0219721
248.6000,0.0209779
248.4000,0.0277501
248.2000,0.0277732
248.0000,0.0241637
247.8000,0.0148131
247.6000,0.0131642
247.4000,0.0176575
247.2000,0.0236464
247.0000,0.0299814
246.8000,0.0267856
246.6000,0.0271155
246.4000,0.0237646
246.2000,0.0194898
246.0000,0.0244719
245.8000,0.0262148
245.6000,0.025717
245.4000,0.0248222
245.2000,0.0264844
245.0000,0.0301789
244.8000,0.0273127
244.6000,0.0258055
244.4000,0.0257106
244.2000,0.0257439
244.0000,0.0237253
243.8000,0.0236522
243.6000,0.0181775
243.4000,0.0141688
243.2000,0.0201032
243.0000,0.0211525
242.8000,0.0190005
242.6000,0.01659
242.4000,0.0210388
242.2000,0.0249224
242.0000,0.0243619
241.8000,0.0261615
241.6000,0.0272374
241.4000,0.027466
241.2000,0.030478
241.0000,0.0289993
240.8000,0.0182967
240.6000,0.0187803
240.4000,0.0263398
240.2000,0.0259791
240.0000,0.0239275
239.8000,0.0229021
239.6000,0.0215478
239.4000,0.0187157
239.2000,0.017094
239.0000,0.0218442
238.8000,0.019804
238.6000,0.0122538
238.4000,0.0215283
238.2000,0.0256696
238.0000,0.019782
237.8000,0.0243751
237.6000,0.024969
237.4000,0.028109
237.2000,0.033028
237.0000,0.0234683
236.8000,0.0211213
236.6000,0.0209266
236.4000,0.0119141
236.2000,0.0113898
236.0000,0.0194302
235.8000,0.0209336
235.6000,0.0223596
235.4000,0.0253018
235.2000,0.0271474
235.0000,0.02674
234.8000,0.0185299
234.6000,0.0185458
234.4000,0.0143152
234.2000,0.0136517
234.0000,0.0204175
233.8000,0.0148662
233.6000,0.0127065
233.4000,0.016269
233.2000,0.0164804
233.0000,0.0189698
232.8000,0.0231705
232.6000,0.021336
232.4000,0.0227682
232.2000,0.0261439
232.0000,0.0162043
231.8000,0.0137778
231.6000,0.016762
231.4000,0.0181401
231.2000,0.0249074
231.0000,0.0277844
230.8000,0.0258167
230.6000,0.0287865
230.4000,0.0365097
230.2000,0.0265381
230.0000,0.0168398
229.8000,0.0194483
229.6000,0.0161168
229.4000,0.0223634
229.2000,0.0278857
229.0000,0.025043
228.8000,0.0203777
228.6000,0.0138119
228.4000,0.0186432
228.2000,0.0232117
228.0000,0.0258614
227.8000,0.0306594
227.6000,0.0235172
227.4000,0.0215457
227.2000,0.0245944
227.0000,0.0251959
226.8000,0.0211543
226.6000,0.0124587
226.4000,0.0167636
226.2000,0.019354
226.0000,0.0168412
225.8000,0.0188549
225.6000,0.0179331
225.4000,0.0233658
225.2000,0.0278943
225.0000,0.0241664
224.8000,0.0227493
224.6000,0.021286
224.4000,0.0214025
224.2000,0.0199067
224.0000,0.0185026
223.8000,0.0197785
223.6000,0.0196749
223.4000,0.0191377
223.2000,0.026087
223.0000,0.0190431
222.8000,0.0126957
222.6000,0.017184
222.4000,0.0179704
222.2000,0.0191344
222.0000,0.0185399
221.8000,0.0213691
221.6000,0.0258352
221.4000,0.0230894
221.2000,0.019956
221.0000,0.0197747
220.8000,0.0249696
220.6000,0.0277528
220.4000,0.0210247
220.2000,0.0131393
220.0000,0.0115441
219.8000,0.015037
219.6000,0.0201596
219.4000,0.0219354
219.2000,0.0203663
219.0000,0.0246556
218.8000,0.0255498
218.6000,0.023859
218.4000,0.0194378
218.2000,0.0146768
218.0000,0.0222397
217.8000,0.0211912
217.6000,0.01589
217.4000,0.0135995
217.2000,0.0113752
217.0000,0.0225561
216.8000,0.0264116
216.6000,0.0263038
216.4000,0.0198976
216.2000,0.0124762
216.0000,0.0210571
215.8000,0.0277751
215.6000,0.0241851
215.4000,0.0189347
215.2000,0.0242077
215.0000,0.0201052
214.8000,0.0183242
214.6000,0.0208668
214.4000,0.0138109
214.2000,0.0117488
214.0000,0.0137291
213.8000,0.0145793
213.6000,0.0174718
213.4000,0.0204106
213.2000,0.0248779
213.0000,0.0281618
212.8000,0.0128195
212.6000,0.00948614
212.4000,0.0266136
212.2000,0.0255734
212.0000,0.0168711
211.8000,0.0170344
211.6000,0.0184739
211.4000,0.0157054
211.2000,0.0105456
211.0000,0.0101131
210.8000,0.0130648
210.6000,0.0199515
210.4000,0.0159763
210.2000,0.0173488
210.0000,0.0303008
209.8000,0.0289363
209.6000,0.0232554
209.4000,0.0240009
209.2000,0.0206504
209.0000,0.0177069
208.8000,0.0210156
208.6000,0.0224527
208.4000,0.0239846
208.2000,0.0250777
208.0000,0.0258523
207.8000,0.025945
207.6000,0.0222292
207.4000,0.0233085
207.2000,0.0221783
207.0000,0.0178988
206.8000,0.0193121
206.6000,0.0198385
206.4000,0.0209464
206.2000,0.0176572
206.0000,0.0178691
205.8000,0.0215704
205.6000,0.0210796
205.4000,0.0215009
205.2000,0.0203733
205.0000,0.0226698
204.8000,0.027816
204.6000,0.0283718
204.4000,0.0198932
204.2000,0.0170609
204.0000,0.0198531
203.8000,0.0173916
203.6000,0.0177584
203.4000,0.0189786
203.2000,0.0190903
203.0000,0.0130737
202.8000,0.0166124
202.6000,0.0272722
202.4000,0.0241654
202.2000,0.0163478
202.0000,0.0220458
201.8000,0.0218384
201.6000,0.0176377
201.4000,0.0251331
201.2000,0.0247641
201.0000,0.0208671
200.8000,0.0250913
200.6000,0.024483
200.4000,0.0161213
200.2000,0.0146457
200.0000,0.0185476

##### Extended Information
[Comments]
Sample name
Comment
Username
Division
Organization,IIT Gandhinagar

[Detailed Information]
Creation date,18-10-2022 18:34

Data array type,Linear data array
Horizontal axis,Wavelength [nm]
Vertical axis,Abs
Start,900 nm
End,200 nm
Data interval,0.2 nm
Data points,3501    

[Measurement Information]
Instrument name,UV-Vis Spectrometer
Model name,V-750
Serial No.,A009361799

Accessory,USE-753
Accessory S/N,A009361799
  Cell,
  Ref. beam,

Measurement date,18-10-2022 18:33

Photometric mode,Abs
Measurement range,900 - 200 nm
Data interval,0.2 nm
Bandwidth,1.0 nm
Response,0.06 sec
Scan mode,Continuous
Scan speed,400 nm/min
Change source at,340 nm
Light source,D2/WI
Filter exchange,Step
Correction,Baseline
No. of cycles,1

