TITLE,
DATA TYPE,ULTRAVIOLET SPECTRUM
ORIGIN,JASCO
OWNER,
DATE,22/10/13
TIME,15:59:19
SPECTROMETER/DATA SYSTEM,
LOCALE,16393
RESOLUTION,
DELTAX,-0.2
XUNITS,NANOMETERS
YUNITS,ABSORBANCE
FIRSTX,  900.0000
LASTX,  200.0000
NPOINTS,    3501
FIRSTY,     0.00432
MAXY,     0.13110
MINY,    -0.00105
XYDATA
900.0000,0.00431989
899.8000,0.00269213
899.6000,0.00382479
899.4000,0.0054566
899.2000,0.00559657
899.0000,0.00452381
898.8000,0.00694278
898.6000,0.00731849
898.4000,0.00284334
898.2000,0.00395769
898.0000,0.00371368
897.8000,0.00165429
897.6000,0.00507435
897.4000,0.0027211
897.2000,0.000635542
897.0000,0.00180039
896.8000,0.00111797
896.6000,0.0023141
896.4000,0.00406886
896.2000,0.0039468
896.0000,0.0026035
895.8000,0.00348097
895.6000,0.00544179
895.4000,0.0061383
895.2000,0.00427213
895.0000,0.00107139
894.8000,0.000690269
894.6000,0.00132129
894.4000,0.00153716
894.2000,0.00324701
894.0000,0.0016644
893.8000,0.00186862
893.6000,0.00638558
893.4000,0.00552709
893.2000,0.00162794
893.0000,0.00088324
892.8000,0.00285001
892.6000,0.00456503
892.4000,0.00448134
892.2000,0.00178284
892.0000,-0.000438705
891.8000,0.00160515
891.6000,0.0034075
891.4000,0.0028785
891.2000,0.000380052
891.0000,0.00120333
890.8000,0.00523954
890.6000,0.0023119
890.4000,-0.0010451
890.2000,-0.000354117
890.0000,0.00153883
889.8000,0.00344183
889.6000,0.00206254
889.4000,0.00180693
889.2000,0.00232172
889.0000,0.00134699
888.8000,0.00306326
888.6000,0.00441477
888.4000,0.00327402
888.2000,0.00346877
888.0000,0.00652954
887.8000,0.00488173
887.6000,-0.000622396
887.4000,-0.000378922
887.2000,0.00285316
887.0000,0.00286648
886.8000,0.00356633
886.6000,0.00384615
886.4000,0.00297499
886.2000,0.00253539
886.0000,0.00200163
885.8000,0.00342523
885.6000,0.00350447
885.4000,0.00271944
885.2000,0.000951172
885.0000,0.000974015
884.8000,0.00361796
884.6000,0.00420193
884.4000,0.00347716
884.2000,0.00456307
884.0000,0.00345093
883.8000,0.000881336
883.6000,0.00235503
883.4000,0.0028365
883.2000,0.00135776
883.0000,0.00202714
882.8000,0.00332607
882.6000,0.00268077
882.4000,0.00160736
882.2000,0.00250838
882.0000,0.00387446
881.8000,0.00328306
881.6000,0.00180158
881.4000,0.00239619
881.2000,0.0020971
881.0000,0.00152164
880.8000,0.00236782
880.6000,0.00262932
880.4000,0.00255258
880.2000,0.00247412
880.0000,0.00308426
879.8000,0.00293037
879.6000,0.00180051
879.4000,0.00169676
879.2000,0.00179021
879.0000,0.000888237
878.8000,0.00128548
878.6000,0.00222577
878.4000,0.00265305
878.2000,0.0022617
878.0000,0.00149457
877.8000,0.00143396
877.6000,0.00259321
877.4000,0.00316433
877.2000,0.00284662
877.0000,0.00260909
876.8000,0.00260945
876.6000,0.00371029
876.4000,0.00427682
876.2000,0.00354426
876.0000,0.00157422
875.8000,0.00194446
875.6000,0.00357847
875.4000,0.00366163
875.2000,0.00284334
875.0000,0.00327259
874.8000,0.00495353
874.6000,0.00411056
874.4000,0.0027578
874.2000,0.00405905
874.0000,0.00349495
873.8000,0.00210941
873.6000,0.00285554
873.4000,0.00163377
873.2000,0.00160605
873.0000,0.00304738
872.8000,0.0027747
872.6000,0.00195314
872.4000,0.00234652
872.2000,0.00266572
872.0000,0.00214356
871.8000,0.00278624
871.6000,0.00331185
871.4000,0.00297225
871.2000,0.00251772
871.0000,0.00234991
870.8000,0.00257275
870.6000,0.0029569
870.4000,0.00273663
870.2000,0.00245056
870.0000,0.00294667
869.8000,0.00307688
869.6000,0.00312864
869.4000,0.00310782
869.2000,0.00322227
869.0000,0.00344641
868.8000,0.00367763
868.6000,0.00398088
868.4000,0.0033366
868.2000,0.00212512
868.0000,0.00200906
867.8000,0.00247352
867.6000,0.00239827
867.4000,0.00239506
867.2000,0.00256007
867.0000,0.002622
866.8000,0.00274198
866.6000,0.00316629
866.4000,0.00358209
866.2000,0.00288956
866.0000,0.00242831
865.8000,0.00351029
865.6000,0.00360065
865.4000,0.0028374
865.2000,0.00270992
865.0000,0.00267988
864.8000,0.00255425
864.6000,0.00246876
864.4000,0.0027882
864.2000,0.00285209
864.0000,0.00297445
863.8000,0.00274026
863.6000,0.0030428
863.4000,0.00314541
863.2000,0.00260659
863.0000,0.00263051
862.8000,0.0028785
862.6000,0.0027217
862.4000,0.0025226
862.2000,0.00256912
862.0000,0.0026195
861.8000,0.0028904
861.6000,0.00262723
861.4000,0.00253497
861.2000,0.0029497
861.0000,0.00273627
860.8000,0.00208574
860.6000,0.00247923
860.4000,0.00282907
860.2000,0.00315826
860.0000,0.00334701
859.8000,0.00279837
859.6000,0.00280212
859.4000,0.0034122
859.2000,0.00350256
859.0000,0.00306059
858.8000,0.00279439
858.6000,0.00300158
858.4000,0.00322292
858.2000,0.00289296
858.0000,0.00244949
857.8000,0.0025737
857.6000,0.00279367
857.4000,0.00291443
857.2000,0.00309312
857.0000,0.00327277
856.8000,0.003748
856.6000,0.00302495
856.4000,0.00267994
856.2000,0.0031839
856.0000,0.00309086
855.8000,0.00257786
855.6000,0.00264425
855.4000,0.00267435
855.2000,0.00253664
855.0000,0.00267328
854.8000,0.00243171
854.6000,0.00296481
854.4000,0.00333237
854.2000,0.00341387
854.0000,0.00327693
853.8000,0.00306404
853.6000,0.00307974
853.4000,0.00319942
853.2000,0.00337508
853.0000,0.00335629
852.8000,0.0030657
852.6000,0.00266084
852.4000,0.00296809
852.2000,0.0035934
852.0000,0.00330192
851.8000,0.00276393
851.6000,0.00279808
851.4000,0.00317283
851.2000,0.00340304
851.0000,0.00350964
850.8000,0.00335426
850.6000,0.00305993
850.4000,0.00337282
850.2000,0.00330364
850.0000,0.00311061
849.8000,0.00335819
849.6000,0.00320264
849.4000,0.00343118
849.2000,0.00377316
849.0000,0.00336438
848.8000,0.00336462
848.6000,0.00326022
848.4000,0.00265644
848.2000,0.00244681
848.0000,0.00288094
847.8000,0.00322601
847.6000,0.00304494
847.4000,0.00295113
847.2000,0.00328901
847.0000,0.00358316
846.8000,0.00319609
846.6000,0.00296517
846.4000,0.00304446
846.2000,0.00321733
846.0000,0.00350137
845.8000,0.00309193
845.6000,0.00330061
845.4000,0.00371796
845.2000,0.0031886
845.0000,0.00334064
844.8000,0.00380719
844.6000,0.00344962
844.4000,0.00309021
844.2000,0.00293787
844.0000,0.00269636
843.8000,0.00279141
843.6000,0.00310895
843.4000,0.00337699
843.2000,0.00322619
843.0000,0.00303661
842.8000,0.00290806
842.6000,0.00292038
842.4000,0.003198
842.2000,0.00298605
842.0000,0.0027606
841.8000,0.00310032
841.6000,0.00339602
841.4000,0.00367043
841.2000,0.00326432
841.0000,0.00293983
840.8000,0.00326759
840.6000,0.00324017
840.4000,0.00324689
840.2000,0.00368155
840.0000,0.00348025
839.8000,0.00307367
839.6000,0.00305458
839.4000,0.00264169
839.2000,0.00255716
839.0000,0.00317319
838.8000,0.00345509
838.6000,0.0033689
838.4000,0.00340804
838.2000,0.00353147
838.0000,0.00338014
837.8000,0.00299682
837.6000,0.00314613
837.4000,0.00310728
837.2000,0.00323839
837.0000,0.00352112
836.8000,0.00361725
836.6000,0.00355681
836.4000,0.00328972
836.2000,0.00314969
836.0000,0.0029158
835.8000,0.00313875
835.6000,0.00332024
835.4000,0.00311121
835.2000,0.00310484
835.0000,0.00333416
834.8000,0.00361618
834.6000,0.00332131
834.4000,0.00301853
834.2000,0.00281092
834.0000,0.00322756
833.8000,0.00369761
833.6000,0.00363956
833.4000,0.00380707
833.2000,0.00354426
833.0000,0.00368328
832.8000,0.00366811
832.6000,0.00332357
832.4000,0.00345087
832.2000,0.00314047
832.0000,0.00299943
831.8000,0.00333392
831.6000,0.00363206
831.4000,0.00354908
831.2000,0.00334927
831.0000,0.00325469
830.8000,0.00326956
830.6000,0.00344064
830.4000,0.00311656
830.2000,0.00309009
830.0000,0.00314166
829.8000,0.00288903
829.6000,0.00303477
829.4000,0.00343754
829.2000,0.00354581
829.0000,0.00335337
828.8000,0.00343332
828.6000,0.00320383
828.4000,0.00299408
828.2000,0.00314256
828.0000,0.00326331
827.8000,0.00337193
827.6000,0.00364979
827.4000,0.00355657
827.2000,0.00334921
827.0000,0.00334784
826.8000,0.00314601
826.6000,0.00330935
826.4000,0.00323839
826.2000,0.00301074
826.0000,0.0033504
825.8000,0.00369268
825.6000,0.00372813
825.4000,0.00360428
825.2000,0.00322256
825.0000,0.00312067
824.8000,0.00378595
824.6000,0.00392901
824.4000,0.00340167
824.2000,0.00348293
824.0000,0.00358352
823.8000,0.00333368
823.6000,0.00346175
823.4000,0.00334974
823.2000,0.00357383
823.0000,0.00376406
822.8000,0.00323446
822.6000,0.00303762
822.4000,0.00334641
822.2000,0.00375538
822.0000,0.00353165
821.8000,0.00331364
821.6000,0.00353338
821.4000,0.00347211
821.2000,0.00345539
821.0000,0.00395763
820.8000,0.00396851
820.6000,0.00370142
820.4000,0.00346175
820.2000,0.00314577
820.0000,0.00326081
819.8000,0.00354985
819.6000,0.00339757
819.4000,0.00342523
819.2000,0.00346526
819.0000,0.0032971
818.8000,0.00370368
818.6000,0.00390558
818.4000,0.00373342
818.2000,0.00361166
818.0000,0.00352011
817.8000,0.00325558
817.6000,0.00327551
817.4000,0.00330459
817.2000,0.00317468
817.0000,0.00318307
816.8000,0.00328764
816.6000,0.00353397
816.4000,0.00359744
816.2000,0.00377816
816.0000,0.00355884
815.8000,0.00353778
815.6000,0.00386221
815.4000,0.0038148
815.2000,0.00334183
815.0000,0.00327491
814.8000,0.00362332
814.6000,0.00340691
814.4000,0.00341524
814.2000,0.00340411
814.0000,0.00366603
813.8000,0.0038264
813.6000,0.0033683
813.4000,0.00354087
813.2000,0.00363997
813.0000,0.00337348
812.8000,0.00343338
812.6000,0.00336521
812.4000,0.00354331
812.2000,0.00372171
812.0000,0.00344837
811.8000,0.00356205
811.6000,0.00378887
811.4000,0.00369512
811.2000,0.00330947
811.0000,0.00296922
810.8000,0.00301472
810.6000,0.00324374
810.4000,0.00336372
810.2000,0.00337758
810.0000,0.00347413
809.8000,0.00318158
809.6000,0.00287541
809.4000,0.00318878
809.2000,0.00336247
809.0000,0.0033457
808.8000,0.00350994
808.6000,0.00343915
808.4000,0.00340691
808.2000,0.00330091
808.0000,0.00338193
807.8000,0.00349649
807.6000,0.00337592
807.4000,0.00369744
807.2000,0.00394228
807.0000,0.00349287
806.8000,0.003595
806.6000,0.00375121
806.4000,0.00351018
806.2000,0.00355854
806.0000,0.00355301
805.8000,0.00331227
805.6000,0.00341922
805.4000,0.00380374
805.2000,0.00346574
805.0000,0.00360428
804.8000,0.00375472
804.6000,0.00326724
804.4000,0.00321549
804.2000,0.00329002
804.0000,0.00326593
803.8000,0.00373741
803.6000,0.00407868
803.4000,0.00363581
803.2000,0.00358804
803.0000,0.00372307
802.8000,0.00362338
802.6000,0.00354486
802.4000,0.00353474
802.2000,0.00388511
802.0000,0.00374033
801.8000,0.00337883
801.6000,0.00353415
801.4000,0.00356324
801.2000,0.00372974
801.0000,0.00365199
800.8000,0.00331625
800.6000,0.00348769
800.4000,0.00352499
800.2000,0.00358798
800.0000,0.0037414
799.8000,0.00404614
799.6000,0.0037643
799.4000,0.00324136
799.2000,0.00319229
799.0000,0.00338657
798.8000,0.00353879
798.6000,0.00348942
798.4000,0.00359512
798.2000,0.00384865
798.0000,0.00389683
797.8000,0.00376198
797.6000,0.00366383
797.4000,0.0032711
797.2000,0.00330144
797.0000,0.00346229
796.8000,0.00341661
796.6000,0.00341684
796.4000,0.0032692
796.2000,0.00315642
796.0000,0.00319336
795.8000,0.00334719
795.6000,0.00363712
795.4000,0.00363135
795.2000,0.00341048
795.0000,0.00320841
794.8000,0.00315332
794.6000,0.00330495
794.4000,0.00358186
794.2000,0.00360172
794.0000,0.00339727
793.8000,0.0034498
793.6000,0.00363289
793.4000,0.00372611
793.2000,0.00350851
793.0000,0.00361059
792.8000,0.0038885
792.6000,0.0037248
792.4000,0.0035423
792.2000,0.00384591
792.0000,0.00381676
791.8000,0.00360279
791.6000,0.00371552
791.4000,0.00367388
791.2000,0.00349989
791.0000,0.00357365
790.8000,0.00348002
790.6000,0.00333047
790.4000,0.00376115
790.2000,0.00394377
790.0000,0.00386649
789.8000,0.00382004
789.6000,0.00342023
789.4000,0.00315963
789.2000,0.00349953
789.0000,0.00373497
788.8000,0.00359381
788.6000,0.00345801
788.4000,0.00359863
788.2000,0.00373456
788.0000,0.00365294
787.8000,0.00361487
787.6000,0.00345182
787.4000,0.00345616
787.2000,0.00366912
787.0000,0.00378393
786.8000,0.00373206
786.6000,0.00324975
786.4000,0.00317188
786.2000,0.0030955
786.0000,0.00315701
785.8000,0.00383128
785.6000,0.00391402
785.4000,0.00356205
785.2000,0.00341536
785.0000,0.00349322
784.8000,0.00352308
784.6000,0.00315166
784.4000,0.00332077
784.2000,0.00368334
784.0000,0.00358626
783.8000,0.00352987
783.6000,0.00352969
783.4000,0.00378036
783.2000,0.00349519
783.0000,0.00351493
782.8000,0.00370701
782.6000,0.00343546
782.4000,0.00353183
782.2000,0.00356086
782.0000,0.00347205
781.8000,0.00337265
781.6000,0.00341018
781.4000,0.00334998
781.2000,0.00351916
781.0000,0.00372242
780.8000,0.00346021
780.6000,0.00362665
780.4000,0.00375883
780.2000,0.00342226
780.0000,0.00332803
779.8000,0.0034263
779.6000,0.00359708
779.4000,0.00346634
779.2000,0.00358905
779.0000,0.00362808
778.8000,0.00324666
778.6000,0.00354277
778.4000,0.00365449
778.2000,0.00365015
778.0000,0.00393752
777.8000,0.00357222
777.6000,0.00316974
777.4000,0.00346247
777.2000,0.00335706
777.0000,0.00324713
776.8000,0.00358299
776.6000,0.00381242
776.4000,0.00379386
776.2000,0.0036762
776.0000,0.00365711
775.8000,0.00376703
775.6000,0.00388862
775.4000,0.00403864
775.2000,0.0037455
775.0000,0.00341268
774.8000,0.00377274
774.6000,0.0036157
774.4000,0.00361897
774.2000,0.00375859
774.0000,0.00368572
773.8000,0.00376222
773.6000,0.00364039
773.4000,0.0035564
773.2000,0.00342142
773.0000,0.00344343
772.8000,0.00361838
772.6000,0.00379475
772.4000,0.00328966
772.2000,0.00311246
772.0000,0.00328473
771.8000,0.00321525
771.6000,0.00367876
771.4000,0.00374639
771.2000,0.00338044
771.0000,0.00334968
770.8000,0.00347121
770.6000,0.00375972
770.4000,0.00360464
770.2000,0.00340965
770.0000,0.00382842
769.8000,0.00381016
769.6000,0.00370196
769.4000,0.00369601
769.2000,0.00352671
769.0000,0.00354956
768.8000,0.00357478
768.6000,0.00354872
768.4000,0.00388838
768.2000,0.00368506
768.0000,0.003722
767.8000,0.00385263
767.6000,0.00366032
767.4000,0.00382765
767.2000,0.00374443
767.0000,0.00353451
766.8000,0.00363194
766.6000,0.0036602
766.4000,0.00358899
766.2000,0.00359774
766.0000,0.00363634
765.8000,0.00382247
765.6000,0.00366442
765.4000,0.00323553
765.2000,0.00337366
765.0000,0.00370529
764.8000,0.00361636
764.6000,0.00350994
764.4000,0.00368268
764.2000,0.00387292
764.0000,0.00349435
763.8000,0.00321073
763.6000,0.00315624
763.4000,0.00336842
763.2000,0.00363629
763.0000,0.00350173
762.8000,0.00363141
762.6000,0.00385347
762.4000,0.00372183
762.2000,0.00362558
762.0000,0.0035395
761.8000,0.00334142
761.6000,0.00319401
761.4000,0.00342939
761.2000,0.00387851
761.0000,0.00392057
760.8000,0.00384407
760.6000,0.00354164
760.4000,0.0035605
760.2000,0.00375157
760.0000,0.00346366
759.8000,0.003378
759.6000,0.00367691
759.4000,0.00376626
759.2000,0.00365217
759.0000,0.00373783
758.8000,0.00369779
758.6000,0.00353046
758.4000,0.00360303
758.2000,0.00368952
758.0000,0.0035558
757.8000,0.00370386
757.6000,0.00364378
757.4000,0.00334921
757.2000,0.00343635
757.0000,0.0035323
756.8000,0.00357769
756.6000,0.00371189
756.4000,0.00377441
756.2000,0.00376733
756.0000,0.00352874
755.8000,0.00360131
755.6000,0.00358899
755.4000,0.00351083
755.2000,0.00378434
755.0000,0.00377197
754.8000,0.00351803
754.6000,0.00325707
754.4000,0.00336575
754.2000,0.00359786
754.0000,0.00354462
753.8000,0.00349644
753.6000,0.00359893
753.4000,0.00356645
753.2000,0.00348674
753.0000,0.00353367
752.8000,0.00355217
752.6000,0.00358876
752.4000,0.00372183
752.2000,0.00359601
752.0000,0.0037753
751.8000,0.00410878
751.6000,0.00412793
751.4000,0.00364313
751.2000,0.00325558
751.0000,0.00340959
750.8000,0.00366811
750.6000,0.00378982
750.4000,0.00367828
750.2000,0.00356865
750.0000,0.00350714
749.8000,0.00361755
749.6000,0.00368197
749.4000,0.00366371
749.2000,0.00363908
749.0000,0.00387488
748.8000,0.00401622
748.6000,0.00361136
748.4000,0.00339317
748.2000,0.00335111
748.0000,0.00352082
747.8000,0.00377245
747.6000,0.00361499
747.4000,0.00334451
747.2000,0.00369863
747.0000,0.00412079
746.8000,0.00397517
746.6000,0.00383776
746.4000,0.00376727
746.2000,0.00369054
746.0000,0.00355925
745.8000,0.00357246
745.6000,0.00385828
745.4000,0.00407582
745.2000,0.00397898
745.0000,0.00367513
744.8000,0.00354967
744.6000,0.00357091
744.4000,0.00357942
744.2000,0.00370797
744.0000,0.00366252
743.8000,0.00345408
743.6000,0.00358632
743.4000,0.00380386
743.2000,0.00362927
743.0000,0.00338365
742.8000,0.00363985
742.6000,0.00400623
742.4000,0.00413513
742.2000,0.00378286
742.0000,0.00361933
741.8000,0.00375127
741.6000,0.00359643
741.4000,0.00364687
741.2000,0.00357971
741.0000,0.00369946
740.8000,0.00374681
740.6000,0.00348781
740.4000,0.00348305
740.2000,0.0037477
740.0000,0.0039932
739.8000,0.00391872
739.6000,0.00360613
739.4000,0.0034915
739.2000,0.00341851
739.0000,0.0035564
738.8000,0.00386388
738.6000,0.00395953
738.4000,0.00390962
738.2000,0.00379713
738.0000,0.00381575
737.8000,0.00380255
737.6000,0.00361112
737.4000,0.0036458
737.2000,0.00395406
737.0000,0.00403746
736.8000,0.00395566
736.6000,0.00387893
736.4000,0.00362706
736.2000,0.003531
736.0000,0.00364783
735.8000,0.00381111
735.6000,0.00375062
735.4000,0.00366514
735.2000,0.00356502
735.0000,0.0033821
734.8000,0.00344218
734.6000,0.00366317
734.4000,0.00386703
734.2000,0.00397785
734.0000,0.00394472
733.8000,0.00384419
733.6000,0.00364842
733.4000,0.00368744
733.2000,0.00380445
733.0000,0.0036784
732.8000,0.00377709
732.6000,0.00388702
732.4000,0.00378262
732.2000,0.00354361
732.0000,0.00350607
731.8000,0.00367561
731.6000,0.0036069
731.4000,0.00341244
731.2000,0.00359804
731.0000,0.00382676
730.8000,0.00356086
730.6000,0.00352475
730.4000,0.00374157
730.2000,0.00378434
730.0000,0.00383479
729.8000,0.00383473
729.6000,0.00373509
729.4000,0.00369137
729.2000,0.00372736
729.0000,0.00365074
728.8000,0.00353201
728.6000,0.00354789
728.4000,0.0036994
728.2000,0.00365746
728.0000,0.00375764
727.8000,0.0038283
727.6000,0.0037038
727.4000,0.00376745
727.2000,0.00390909
727.0000,0.00402342
726.8000,0.00390326
726.6000,0.00362552
726.4000,0.00374443
726.2000,0.00378006
726.0000,0.00359923
725.8000,0.00357799
725.6000,0.00367685
725.4000,0.00386887
725.2000,0.0039537
725.0000,0.00395661
724.8000,0.00381028
724.6000,0.00362314
724.4000,0.00381206
724.2000,0.00413346
724.0000,0.00378202
723.8000,0.00347752
723.6000,0.00358293
723.4000,0.00379565
723.2000,0.00395447
723.0000,0.00364741
722.8000,0.00356062
722.6000,0.00371379
722.4000,0.00384674
722.2000,0.00377733
722.0000,0.0035172
721.8000,0.00364652
721.6000,0.00388951
721.4000,0.00384454
721.2000,0.00383776
721.0000,0.0037549
720.8000,0.00365948
720.6000,0.00378619
720.4000,0.00364384
720.2000,0.00349138
720.0000,0.00371094
719.8000,0.00380058
719.6000,0.00368328
719.4000,0.00358459
719.2000,0.00374217
719.0000,0.00381849
718.8000,0.00357894
718.6000,0.00365972
718.4000,0.00358459
718.2000,0.00371736
718.0000,0.00412359
717.8000,0.00393568
717.6000,0.0037728
717.4000,0.00382033
717.2000,0.00383455
717.0000,0.00381885
716.8000,0.00387286
716.6000,0.00383711
716.4000,0.00373896
716.2000,0.00412067
716.0000,0.00416273
715.8000,0.00372349
715.6000,0.00359625
715.4000,0.00391254
715.2000,0.00405768
715.0000,0.00392669
714.8000,0.00373551
714.6000,0.00372444
714.4000,0.00391587
714.2000,0.00373235
714.0000,0.00359649
713.8000,0.00390558
713.6000,0.00386864
713.4000,0.00370184
713.2000,0.00381908
713.0000,0.00368114
712.8000,0.00357091
712.6000,0.00368911
712.4000,0.00371832
712.2000,0.00360987
712.0000,0.00383752
711.8000,0.00388934
711.6000,0.00385323
711.4000,0.00384906
711.2000,0.0038452
711.0000,0.00374366
710.8000,0.00364206
710.6000,0.00368429
710.4000,0.00351946
710.2000,0.00370035
710.0000,0.00384889
709.8000,0.0035862
709.6000,0.00369982
709.4000,0.00389933
709.2000,0.00370559
709.0000,0.00365526
708.8000,0.00369238
708.6000,0.00365675
708.4000,0.00361511
708.2000,0.00383247
708.0000,0.00390058
707.8000,0.00372813
707.6000,0.00386358
707.4000,0.00374758
707.2000,0.00374098
707.0000,0.00388535
706.8000,0.00372658
706.6000,0.00390534
706.4000,0.00392449
706.2000,0.00367477
706.0000,0.00357597
705.8000,0.0036433
705.6000,0.00386465
705.4000,0.00392937
705.2000,0.00387387
705.0000,0.00369672
704.8000,0.00365139
704.6000,0.00370743
704.4000,0.00369286
704.2000,0.00368798
704.0000,0.00369149
703.8000,0.00375276
703.6000,0.00377316
703.4000,0.00356954
703.2000,0.00367168
703.0000,0.00402157
702.8000,0.00405482
702.6000,0.00378167
702.4000,0.00352778
702.2000,0.00370612
702.0000,0.00370844
701.8000,0.00382004
701.6000,0.00406226
701.4000,0.0039857
701.2000,0.00367263
701.0000,0.00371927
700.8000,0.00374366
700.6000,0.0036179
700.4000,0.00362278
700.2000,0.00357353
700.0000,0.00381623
699.8000,0.00396613
699.6000,0.00384216
699.4000,0.00370838
699.2000,0.00384431
699.0000,0.00397517
698.8000,0.00383175
698.6000,0.00376126
698.4000,0.00390064
698.2000,0.00385234
698.0000,0.00373527
697.8000,0.00377358
697.6000,0.00372956
697.4000,0.00379339
697.2000,0.00386322
697.0000,0.00391152
696.8000,0.00398517
696.6000,0.00393431
696.4000,0.00389487
696.2000,0.00375532
696.0000,0.00377679
695.8000,0.00385281
695.6000,0.00388357
695.4000,0.00396173
695.2000,0.00387214
695.0000,0.00393098
694.8000,0.00390123
694.6000,0.00388244
694.4000,0.00406083
694.2000,0.00394858
694.0000,0.00397559
693.8000,0.00387803
693.6000,0.00392836
693.4000,0.00398671
693.2000,0.00396708
693.0000,0.00410521
692.8000,0.00397238
692.6000,0.00384978
692.4000,0.00390807
692.2000,0.00393746
692.0000,0.00387179
691.8000,0.00391378
691.6000,0.00394317
691.4000,0.00409641
691.2000,0.00404037
691.0000,0.00382176
690.8000,0.00381932
690.6000,0.00404917
690.4000,0.00403323
690.2000,0.00374705
690.0000,0.00383164
689.8000,0.00390504
689.6000,0.00384466
689.4000,0.00373664
689.2000,0.00389891
689.0000,0.0040343
688.8000,0.00394014
688.6000,0.00372391
688.4000,0.00379922
688.2000,0.00392812
688.0000,0.00380154
687.8000,0.00409188
687.6000,0.00427605
687.4000,0.00417386
687.2000,0.00392146
687.0000,0.00399635
686.8000,0.00410765
686.6000,0.00405881
686.4000,0.00401979
686.2000,0.00399944
686.0000,0.0038659
685.8000,0.00370927
685.6000,0.0037866
685.4000,0.00388731
685.2000,0.00395792
685.0000,0.00400789
684.8000,0.00389677
684.6000,0.00391004
684.4000,0.00404257
684.2000,0.00397155
684.0000,0.00397952
683.8000,0.00389064
683.6000,0.00385864
683.4000,0.00377881
683.2000,0.00378357
683.0000,0.00401069
682.8000,0.00395227
682.6000,0.00395501
682.4000,0.00401753
682.2000,0.00406381
682.0000,0.00419283
681.8000,0.00407005
681.6000,0.00401229
681.4000,0.00385894
681.2000,0.00385745
681.0000,0.00409605
680.8000,0.00412591
680.6000,0.00407451
680.4000,0.00387875
680.2000,0.00391265
680.0000,0.0039051
679.8000,0.00378434
679.6000,0.00387101
679.4000,0.004134
679.2000,0.00411592
679.0000,0.00386881
678.8000,0.00391218
678.6000,0.00414251
678.4000,0.00427052
678.2000,0.004245
678.0000,0.00396423
677.8000,0.00376977
677.6000,0.00412466
677.4000,0.00423733
677.2000,0.00397428
677.0000,0.00399415
676.8000,0.00420503
676.6000,0.00415018
676.4000,0.00403692
676.2000,0.00388369
676.0000,0.00416779
675.8000,0.00435856
675.6000,0.00407297
675.4000,0.00418813
675.2000,0.00432495
675.0000,0.00402687
674.8000,0.0038772
674.6000,0.00400646
674.4000,0.00392164
674.2000,0.00399689
674.0000,0.00398939
673.8000,0.00423114
673.6000,0.00453107
673.4000,0.00435017
673.2000,0.00402199
673.0000,0.00367882
672.8000,0.0039769
672.6000,0.00443512
672.4000,0.00434125
672.2000,0.00414964
672.0000,0.00399385
671.8000,0.00395525
671.6000,0.00399582
671.4000,0.0039496
671.2000,0.00387446
671.0000,0.00398814
670.8000,0.00432239
670.6000,0.00446932
670.4000,0.00446521
670.2000,0.00432887
670.0000,0.00416261
669.8000,0.00412198
669.6000,0.00403841
669.4000,0.00399123
669.2000,0.00400034
669.0000,0.00411163
668.8000,0.00427028
668.6000,0.00421401
668.4000,0.00409599
668.2000,0.00401241
668.0000,0.00424072
667.8000,0.00432382
667.6000,0.0041133
667.4000,0.0040299
667.2000,0.00401479
667.0000,0.00406601
666.8000,0.00424934
666.6000,0.00436712
666.4000,0.00411205
666.2000,0.00394204
666.0000,0.00406077
665.8000,0.00424208
665.6000,0.00412359
665.4000,0.00419218
665.2000,0.00426713
665.0000,0.0038477
664.8000,0.00368483
664.6000,0.00383045
664.4000,0.0039882
664.2000,0.00422376
664.0000,0.00425279
663.8000,0.00414019
663.6000,0.00406946
663.4000,0.00409908
663.2000,0.00428164
663.0000,0.00427903
662.8000,0.00426534
662.6000,0.00420235
662.4000,0.00418206
662.2000,0.00430817
662.0000,0.00412585
661.8000,0.00379987
661.6000,0.00370315
661.4000,0.00389344
661.2000,0.00403299
661.0000,0.00413953
660.8000,0.00425969
660.6000,0.00429526
660.4000,0.00435808
660.2000,0.00429693
660.0000,0.00412573
659.8000,0.00401687
659.6000,0.0040688
659.4000,0.00420806
659.2000,0.00419473
659.0000,0.00424018
658.8000,0.00438497
658.6000,0.00423911
658.4000,0.00431079
658.2000,0.00447158
658.0000,0.00429437
657.8000,0.00424708
657.6000,0.00422025
657.4000,0.00425493
657.2000,0.00427748
657.0000,0.00422388
656.8000,0.00392973
656.6000,0.00385014
656.4000,0.00408219
656.2000,0.00399296
656.0000,0.00416231
655.8000,0.00428741
655.6000,0.00435481
655.4000,0.00430437
655.2000,0.00401318
655.0000,0.00387934
654.8000,0.00401848
654.6000,0.00420116
654.4000,0.00394995
654.2000,0.00402342
654.0000,0.004171
653.8000,0.00415559
653.6000,0.00433958
653.4000,0.00424613
653.2000,0.00418849
653.0000,0.00408974
652.8000,0.0039374
652.6000,0.00409456
652.4000,0.00401003
652.2000,0.00399177
652.0000,0.00411181
651.8000,0.00422477
651.6000,0.00444862
651.4000,0.00429419
651.2000,0.00405786
651.0000,0.00419926
650.8000,0.00433197
650.6000,0.0044328
650.4000,0.00438729
650.2000,0.00415309
650.0000,0.00441537
649.8000,0.00430092
649.6000,0.00403894
649.4000,0.00419224
649.2000,0.00431002
649.0000,0.00424113
648.8000,0.00419224
648.6000,0.00433292
648.4000,0.00425476
648.2000,0.00436897
648.0000,0.0044162
647.8000,0.00421877
647.6000,0.00409498
647.4000,0.00397589
647.2000,0.00418926
647.0000,0.0042983
646.8000,0.00410182
646.6000,0.00405548
646.4000,0.00404459
646.2000,0.0041829
646.0000,0.00419462
645.8000,0.00398838
645.6000,0.00408534
645.4000,0.00425
645.2000,0.00426707
645.0000,0.00431103
644.8000,0.00430074
644.6000,0.00436397
644.4000,0.00431073
644.2000,0.00421972
644.0000,0.00438336
643.8000,0.0041089
643.6000,0.00379208
643.4000,0.00396696
643.2000,0.0041619
643.0000,0.00409177
642.8000,0.0041437
642.6000,0.00427337
642.4000,0.00430752
642.2000,0.00434351
642.0000,0.00418123
641.8000,0.0042315
641.6000,0.00429318
641.4000,0.00436837
641.2000,0.00427926
641.0000,0.0041519
640.8000,0.00417469
640.6000,0.00416398
640.4000,0.00419801
640.2000,0.00420384
640.0000,0.00405845
639.8000,0.00396298
639.6000,0.0042055
639.4000,0.00413442
639.2000,0.00404126
639.0000,0.00432269
638.8000,0.00435552
638.6000,0.00424631
638.4000,0.00435076
638.2000,0.00437676
638.0000,0.00421145
637.8000,0.00415994
637.6000,0.00422329
637.4000,0.00402942
637.2000,0.00406172
637.0000,0.00415821
636.8000,0.00413156
636.6000,0.00411615
636.4000,0.00418177
636.2000,0.00435665
636.0000,0.00439163
635.8000,0.00430579
635.6000,0.00425969
635.4000,0.00437866
635.2000,0.00427331
635.0000,0.00406226
634.8000,0.00431174
634.6000,0.00431388
634.4000,0.00422079
634.2000,0.00437985
634.0000,0.0043833
633.8000,0.00426731
633.6000,0.00406488
633.4000,0.00420104
633.2000,0.00427671
633.0000,0.00422043
632.8000,0.00431067
632.6000,0.00419848
632.4000,0.00417671
632.2000,0.00427819
632.0000,0.00429937
631.8000,0.00436112
631.6000,0.00422388
631.4000,0.00406636
631.2000,0.0041685
631.0000,0.00415464
630.8000,0.0041045
630.6000,0.00423138
630.4000,0.00429068
630.2000,0.00424631
630.0000,0.00419878
629.8000,0.00453945
629.6000,0.00457401
629.4000,0.00416166
629.2000,0.00425089
629.0000,0.00438991
628.8000,0.00431781
628.6000,0.00426826
628.4000,0.00415024
628.2000,0.00420972
628.0000,0.0043309
627.8000,0.00431478
627.6000,0.00423941
627.4000,0.00429842
627.2000,0.00446069
627.0000,0.00453672
626.8000,0.00442881
626.6000,0.00430526
626.4000,0.0044209
626.2000,0.00423102
626.0000,0.0041058
625.8000,0.00421817
625.6000,0.00426558
625.4000,0.00434999
625.2000,0.00445689
625.0000,0.00460792
624.8000,0.00453826
624.6000,0.00430829
624.4000,0.00420514
624.2000,0.00442429
624.0000,0.00449734
623.8000,0.00458204
623.6000,0.00465218
623.4000,0.00437628
623.2000,0.00425666
623.0000,0.00427974
622.8000,0.00436088
622.6000,0.00467032
622.4000,0.00461036
622.2000,0.00438979
622.0000,0.00440168
621.8000,0.0045548
621.6000,0.00473974
621.4000,0.00449079
621.2000,0.00417475
621.0000,0.00415125
620.8000,0.00419366
620.6000,0.00444404
620.4000,0.00449216
620.2000,0.00428438
620.0000,0.00417296
619.8000,0.00423162
619.6000,0.00441001
619.4000,0.00442792
619.2000,0.00429289
619.0000,0.00419271
618.8000,0.00416576
618.6000,0.004134
618.4000,0.00436046
618.2000,0.00456182
618.0000,0.00455551
617.8000,0.00443696
617.6000,0.00430312
617.4000,0.00431079
617.2000,0.00449853
617.0000,0.00447354
616.8000,0.00412823
616.6000,0.00442084
616.4000,0.00454635
616.2000,0.00420913
616.0000,0.00403454
615.8000,0.00426392
615.6000,0.00466782
615.4000,0.00439145
615.2000,0.00427998
615.0000,0.00456313
614.8000,0.00450317
614.6000,0.00455504
614.4000,0.00458157
614.2000,0.0043538
614.0000,0.0042563
613.8000,0.00438913
613.6000,0.00443321
613.4000,0.00433762
613.2000,0.00451167
613.0000,0.00441043
612.8000,0.00427052
612.6000,0.0044698
612.4000,0.00438895
612.2000,0.0043789
612.0000,0.00433161
611.8000,0.00440918
611.6000,0.00449305
611.4000,0.00435469
611.2000,0.00439145
611.0000,0.00443743
610.8000,0.00457235
610.6000,0.00444023
610.4000,0.00448657
610.2000,0.00450317
610.0000,0.0044902
609.8000,0.00444552
609.6000,0.00440371
609.4000,0.00463433
609.2000,0.00446385
609.0000,0.00446831
608.8000,0.00447081
608.6000,0.00453297
608.4000,0.00463451
608.2000,0.00433881
608.0000,0.00436516
607.8000,0.00455087
607.6000,0.00450406
607.4000,0.00454433
607.2000,0.00459299
607.0000,0.00451863
606.8000,0.0044328
606.6000,0.00435213
606.4000,0.00450305
606.2000,0.00464778
606.0000,0.00464385
605.8000,0.00455123
605.6000,0.00452298
605.4000,0.00434422
605.2000,0.00421633
605.0000,0.00438848
604.8000,0.00433334
604.6000,0.00452226
604.4000,0.00475146
604.2000,0.00471975
604.0000,0.00461173
603.8000,0.00446896
603.6000,0.00447515
603.4000,0.00454606
603.2000,0.00427635
603.0000,0.00420378
602.8000,0.0044438
602.6000,0.0044209
602.4000,0.00435701
602.2000,0.00435665
602.0000,0.00435903
601.8000,0.00438782
601.6000,0.00440769
601.4000,0.00442536
601.2000,0.00467312
601.0000,0.00456789
600.8000,0.00442137
600.6000,0.00450358
600.4000,0.00456741
600.2000,0.0046884
600.0000,0.0047837
599.8000,0.00464914
599.6000,0.0044733
599.4000,0.00446403
599.2000,0.00459448
599.0000,0.00441382
598.8000,0.00425398
598.6000,0.00455474
598.4000,0.00447527
598.2000,0.00428105
598.0000,0.00436094
597.8000,0.00456688
597.6000,0.0047194
597.4000,0.00468275
597.2000,0.00465129
597.0000,0.00471951
596.8000,0.00464867
596.6000,0.00458133
596.4000,0.00463635
596.2000,0.00441453
596.0000,0.0044181
595.8000,0.00478269
595.6000,0.00471868
595.4000,0.00450626
595.2000,0.00469322
595.0000,0.00463856
594.8000,0.00434131
594.6000,0.00424958
594.4000,0.00437117
594.2000,0.0045059
594.0000,0.00435951
593.8000,0.004298
593.6000,0.00430169
593.4000,0.00442161
593.2000,0.00454772
593.0000,0.00462023
592.8000,0.00479952
592.6000,0.00483236
592.4000,0.00473189
592.2000,0.00460304
592.0000,0.00453029
591.8000,0.00458252
591.6000,0.00478834
591.4000,0.00501016
591.2000,0.00475937
591.0000,0.00451857
590.8000,0.00447866
590.6000,0.00459192
590.4000,0.00477918
590.2000,0.00460346
590.0000,0.00449335
589.8000,0.00449716
589.6000,0.00461268
589.4000,0.00465497
589.2000,0.00454885
589.0000,0.00476062
588.8000,0.00481695
588.6000,0.0045896
588.4000,0.00456366
588.2000,0.00458532
588.0000,0.00461928
587.8000,0.00467871
587.6000,0.0048044
587.4000,0.00487608
587.2000,0.00470387
587.0000,0.00459941
586.8000,0.0046686
586.6000,0.00469739
586.4000,0.00464766
586.2000,0.00463891
586.0000,0.00471946
585.8000,0.00466062
585.6000,0.00466996
585.4000,0.00480845
585.2000,0.00459448
585.0000,0.00436445
584.8000,0.00450602
584.6000,0.00470905
584.4000,0.00469959
584.2000,0.00466009
584.0000,0.00453939
583.8000,0.00447842
583.6000,0.00470024
583.4000,0.00458377
583.2000,0.00453963
583.0000,0.00473468
582.8000,0.00471654
582.6000,0.00457996
582.4000,0.0045482
582.2000,0.00472594
582.0000,0.00481297
581.8000,0.00471309
581.6000,0.00452666
581.4000,0.00468008
581.2000,0.00475895
581.0000,0.00490541
580.8000,0.00479613
580.6000,0.00443113
580.4000,0.00434458
580.2000,0.00441929
580.0000,0.00472701
579.8000,0.00483551
579.6000,0.00477591
579.4000,0.00467704
579.2000,0.00467401
579.0000,0.00459573
578.8000,0.00468382
578.6000,0.0048044
578.4000,0.0047301
578.2000,0.00473445
578.0000,0.004906
577.8000,0.00504157
577.6000,0.00486853
577.4000,0.00486174
577.2000,0.0049085
577.0000,0.00478108
576.8000,0.00479566
576.6000,0.00459894
576.4000,0.00450852
576.2000,0.00461952
576.0000,0.00479447
575.8000,0.00502289
575.6000,0.00481314
575.4000,0.00471606
575.2000,0.0047928
575.0000,0.0047373
574.8000,0.00474242
574.6000,0.00478566
574.4000,0.00476407
574.2000,0.00504103
574.0000,0.00502355
573.8000,0.00467288
573.6000,0.00476264
573.4000,0.00474545
573.2000,0.00481493
573.0000,0.0050982
572.8000,0.00497643
572.6000,0.0048157
572.4000,0.00485734
572.2000,0.0047332
572.0000,0.00470512
571.8000,0.00476651
571.6000,0.00457687
571.4000,0.00467062
571.2000,0.00487465
571.0000,0.00490743
570.8000,0.0050129
570.6000,0.00501236
570.4000,0.00478447
570.2000,0.00472035
570.0000,0.00482909
569.8000,0.00483926
569.6000,0.00483289
569.4000,0.00464248
569.2000,0.0047395
569.0000,0.0049132
568.8000,0.00511569
568.6000,0.00503092
568.4000,0.00487037
568.2000,0.00494758
568.0000,0.00476556
567.8000,0.00473361
567.6000,0.0049568
567.4000,0.00501397
567.2000,0.0049151
567.0000,0.00465033
566.8000,0.00471648
566.6000,0.00486936
566.4000,0.00483408
566.2000,0.00518219
566.0000,0.00531389
565.8000,0.00517642
565.6000,0.00498649
565.4000,0.00495311
565.2000,0.00494812
565.0000,0.00482998
564.8000,0.00480785
564.6000,0.00477864
564.4000,0.00473326
564.2000,0.00483646
564.0000,0.00503366
563.8000,0.00508184
563.6000,0.00504127
563.4000,0.00509261
563.2000,0.00489339
563.0000,0.00459025
562.8000,0.00455272
562.6000,0.00460156
562.4000,0.00466776
562.2000,0.00479601
562.0000,0.00494134
561.8000,0.00494211
561.6000,0.00478679
561.4000,0.00484937
561.2000,0.00501159
561.0000,0.00506203
560.8000,0.0049847
560.6000,0.00486716
560.4000,0.00498405
560.2000,0.00495865
560.0000,0.00481654
559.8000,0.00491165
559.6000,0.00496067
559.4000,0.00501076
559.2000,0.00512741
559.0000,0.00483206
558.8000,0.00471833
558.6000,0.00495811
558.4000,0.00501635
558.2000,0.00497405
558.0000,0.00492087
557.8000,0.00493009
557.6000,0.00491391
557.4000,0.00479488
557.2000,0.00502456
557.0000,0.00499047
556.8000,0.0046721
556.6000,0.00505168
556.4000,0.00525471
556.2000,0.00506501
556.0000,0.0049731
555.8000,0.00486966
555.6000,0.00489405
555.4000,0.00489821
555.2000,0.0049204
555.0000,0.00502563
554.8000,0.00513104
554.6000,0.00534078
554.4000,0.00528457
554.2000,0.00516952
554.0000,0.00513454
553.8000,0.00500397
553.6000,0.00508303
553.4000,0.00515531
553.2000,0.00494009
553.0000,0.00479685
552.8000,0.00480244
552.6000,0.00490309
552.4000,0.00508428
552.2000,0.00524911
552.0000,0.00521152
551.8000,0.0052017
551.6000,0.00523216
551.4000,0.00511807
551.2000,0.00497346
551.0000,0.00492623
550.8000,0.00506203
550.6000,0.00501153
550.4000,0.00499678
550.2000,0.00512711
550.0000,0.00511087
549.8000,0.00511295
549.6000,0.00520236
549.4000,0.00510052
549.2000,0.00485217
549.0000,0.00498048
548.8000,0.00512592
548.6000,0.00520688
548.4000,0.00515965
548.2000,0.00495603
548.0000,0.00502349
547.8000,0.00505828
547.6000,0.00509558
547.4000,0.00516964
547.2000,0.00521872
547.0000,0.00551727
546.8000,0.00539563
546.6000,0.00516161
546.4000,0.00525423
546.2000,0.00507875
546.0000,0.00496614
545.8000,0.00509166
545.6000,0.00529831
545.4000,0.00524358
545.2000,0.00504954
545.0000,0.0049938
544.8000,0.00506049
544.6000,0.00508238
544.4000,0.00503729
544.2000,0.00518564
544.0000,0.00529855
543.8000,0.00533757
543.6000,0.00528248
543.4000,0.00522984
543.2000,0.00543447
543.0000,0.00525732
542.8000,0.00499446
542.6000,0.00506191
542.4000,0.00513092
542.2000,0.00522853
542.0000,0.00538236
541.8000,0.005308
541.6000,0.00519468
541.4000,0.00525131
541.2000,0.00521027
541.0000,0.00540033
540.8000,0.0054685
540.6000,0.00525149
540.4000,0.00534744
540.2000,0.00555112
540.0000,0.00551716
539.8000,0.00521259
539.6000,0.00506846
539.4000,0.00523186
539.2000,0.00537183
539.0000,0.00535779
538.8000,0.0053876
538.6000,0.00557158
538.4000,0.00560531
538.2000,0.0055024
538.0000,0.00546058
537.8000,0.0056024
537.6000,0.00556332
537.4000,0.00558193
537.2000,0.00541823
537.0000,0.00518951
536.8000,0.0053274
536.6000,0.00542477
536.4000,0.00531151
536.2000,0.00526143
536.0000,0.00540015
535.8000,0.00544095
535.6000,0.00548093
535.4000,0.00553905
535.2000,0.005413
535.0000,0.00536184
534.8000,0.00560716
534.6000,0.00562875
534.4000,0.00550056
534.2000,0.00531318
534.0000,0.00526143
533.8000,0.0055378
533.6000,0.00569972
533.4000,0.00571643
533.2000,0.00576099
533.0000,0.00565748
532.8000,0.0055952
532.6000,0.0057987
532.4000,0.00556058
532.2000,0.00544155
532.0000,0.00555308
531.8000,0.00553625
531.6000,0.00569876
531.4000,0.00572559
531.2000,0.00566962
531.0000,0.00565588
530.8000,0.00572422
530.6000,0.00551097
530.4000,0.00529367
530.2000,0.00550377
530.0000,0.00580108
529.8000,0.00586348
529.6000,0.00575664
529.4000,0.00576747
529.2000,0.00576075
529.0000,0.00559627
528.8000,0.00561525
528.6000,0.00554309
528.4000,0.00541966
528.2000,0.00549919
528.0000,0.00558182
527.8000,0.00576979
527.6000,0.0058727
527.4000,0.00585343
527.2000,0.00606508
527.0000,0.00610422
526.8000,0.00590203
526.6000,0.00589072
526.4000,0.00591702
526.2000,0.00560656
526.0000,0.00566498
525.8000,0.00616275
525.6000,0.00618595
525.4000,0.0060455
525.2000,0.00588763
525.0000,0.00579513
524.8000,0.00584855
524.6000,0.00585569
524.4000,0.00600999
524.2000,0.0061775
524.0000,0.00606406
523.8000,0.00618363
523.6000,0.00621724
523.4000,0.00611623
523.2000,0.00625382
523.0000,0.00610731
522.8000,0.00620243
522.6000,0.00640295
522.4000,0.00643038
522.2000,0.00632086
522.0000,0.00600137
521.8000,0.00602641
521.6000,0.00602403
521.4000,0.00601755
521.2000,0.0063286
521.0000,0.00634216
520.8000,0.00629517
520.6000,0.00623223
520.4000,0.00634073
520.2000,0.00651954
520.0000,0.00627298
519.8000,0.00630599
519.6000,0.00644971
519.4000,0.00643847
519.2000,0.00647463
519.0000,0.00649266
518.8000,0.00651568
518.6000,0.00645274
518.4000,0.00650449
518.2000,0.00656339
518.0000,0.00654334
517.8000,0.00643299
517.6000,0.00654994
517.4000,0.00697693
517.2000,0.00686391
517.0000,0.00647915
516.8000,0.00656333
516.6000,0.00670109
516.4000,0.00682976
516.2000,0.00683262
516.0000,0.00659075
515.8000,0.0065942
515.6000,0.0067538
515.4000,0.00692327
515.2000,0.00691863
515.0000,0.00693517
514.8000,0.00705057
514.6000,0.00703564
514.4000,0.00688663
514.2000,0.00711374
514.0000,0.00736406
513.8000,0.00735603
513.6000,0.00734425
513.4000,0.00752074
513.2000,0.0074791
513.0000,0.00730862
512.8000,0.00738208
512.6000,0.00733491
512.4000,0.00725449
512.2000,0.0071376
512.0000,0.00724967
511.8000,0.00752057
511.6000,0.00772056
511.4000,0.00763228
511.2000,0.00757428
511.0000,0.00763228
510.8000,0.00759546
510.6000,0.0077958
510.4000,0.00802143
510.2000,0.00783019
510.0000,0.00791454
509.8000,0.00787968
509.6000,0.00803035
509.4000,0.00808098
509.2000,0.00802381
509.0000,0.00824795
508.8000,0.00827883
508.6000,0.00821393
508.4000,0.00836538
508.2000,0.00862354
508.0000,0.00848738
507.8000,0.00832772
507.6000,0.00864603
507.4000,0.00874198
507.2000,0.00872312
507.0000,0.00873306
506.8000,0.00874127
506.6000,0.00883341
506.4000,0.00909116
506.2000,0.00898307
506.0000,0.00891032
505.8000,0.00928859
505.6000,0.00928502
505.4000,0.00904214
505.2000,0.00937705
505.0000,0.00968001
504.8000,0.00967245
504.6000,0.00973848
504.4000,0.00970689
504.2000,0.00970826
504.0000,0.00986828
503.8000,0.00992735
503.6000,0.00988559
503.4000,0.00999183
503.2000,0.00981528
503.0000,0.00998273
502.8000,0.0106412
502.6000,0.0107695
502.4000,0.0107046
502.2000,0.0106825
502.0000,0.0105424
501.8000,0.0104594
501.6000,0.0106745
501.4000,0.010945
501.2000,0.0110816
501.0000,0.0109842
500.8000,0.0111144
500.6000,0.0115041
500.4000,0.0116315
500.2000,0.0115649
500.0000,0.0116253
499.8000,0.0117393
499.6000,0.0116414
499.4000,0.0118086
499.2000,0.0119924
499.0000,0.0121292
498.8000,0.0121787
498.6000,0.0122905
498.4000,0.0124843
498.2000,0.0125734
498.0000,0.0127169
497.8000,0.0130008
497.6000,0.0133021
497.4000,0.0132871
497.2000,0.0132921
497.0000,0.0132553
496.8000,0.0133453
496.6000,0.0136018
496.4000,0.0136743
496.2000,0.0136997
496.0000,0.0139975
495.8000,0.0142532
495.6000,0.0142276
495.4000,0.0146175
495.2000,0.0146744
495.0000,0.0146726
494.8000,0.0149395
494.6000,0.0148052
494.4000,0.0149152
494.2000,0.0153549
494.0000,0.0155975
493.8000,0.0159834
493.6000,0.0160203
493.4000,0.015708
493.2000,0.0158277
493.0000,0.0158714
492.8000,0.0160285
492.6000,0.0165094
492.4000,0.0167011
492.2000,0.0166807
492.0000,0.0167765
491.8000,0.0169636
491.6000,0.0173152
491.4000,0.0174132
491.2000,0.0174429
491.0000,0.0176585
490.8000,0.0178086
490.6000,0.0181553
490.4000,0.0183748
490.2000,0.0183672
490.0000,0.0184312
489.8000,0.0187071
489.6000,0.018966
489.4000,0.0187847
489.2000,0.0188763
489.0000,0.0193503
488.8000,0.0194878
488.6000,0.0194836
488.4000,0.0195886
488.2000,0.0197459
488.0000,0.0198345
487.8000,0.0197471
487.6000,0.0200499
487.4000,0.0204465
487.2000,0.0204945
487.0000,0.0206903
486.8000,0.0209619
486.6000,0.0209653
486.4000,0.0212781
486.2000,0.0213593
486.0000,0.0213246
485.8000,0.0217189
485.6000,0.0217919
485.4000,0.0218549
485.2000,0.0218106
485.0000,0.0220281
484.8000,0.0223073
484.6000,0.0225088
484.4000,0.0227903
484.2000,0.0229207
484.0000,0.0230388
483.8000,0.0233457
483.6000,0.0233601
483.4000,0.023299
483.2000,0.0236953
483.0000,0.0238547
482.8000,0.0239213
482.6000,0.0241218
482.4000,0.0242994
482.2000,0.0243633
482.0000,0.0243226
481.8000,0.0242825
481.6000,0.024617
481.4000,0.0250588
481.2000,0.0250933
481.0000,0.0253985
480.8000,0.0255229
480.6000,0.0254025
480.4000,0.0258678
480.2000,0.0259149
480.0000,0.0257051
479.8000,0.025933
479.6000,0.0263607
479.4000,0.0266393
479.2000,0.0267099
479.0000,0.0267228
478.8000,0.0268794
478.6000,0.0270473
478.4000,0.0269933
478.2000,0.0269648
478.0000,0.027125
477.8000,0.0271853
477.6000,0.0273483
477.4000,0.0275657
477.2000,0.027644
477.0000,0.0277622
476.8000,0.0282249
476.6000,0.0286846
476.4000,0.0285296
476.2000,0.028281
476.0000,0.0281809
475.8000,0.0283121
475.6000,0.0286188
475.4000,0.0289883
475.2000,0.0289863
475.0000,0.029035
474.8000,0.0294632
474.6000,0.0294571
474.4000,0.0293881
474.2000,0.0295979
474.0000,0.0298683
473.8000,0.0301577
473.6000,0.0298719
473.4000,0.0299635
473.2000,0.0304985
473.0000,0.0303277
472.8000,0.0302461
472.6000,0.0306838
472.4000,0.0308157
472.2000,0.0307806
472.0000,0.0309609
471.8000,0.031102
471.6000,0.0310738
471.4000,0.0310791
471.2000,0.0311197
471.0000,0.0311693
470.8000,0.0313695
470.6000,0.0315071
470.4000,0.0316338
470.2000,0.0316169
470.0000,0.0316078
469.8000,0.0318342
469.6000,0.0322033
469.4000,0.032361
469.2000,0.0324698
469.0000,0.0324134
468.8000,0.0324439
468.6000,0.0325105
468.4000,0.0324894
468.2000,0.0326936
468.0000,0.0327217
467.8000,0.0328443
467.6000,0.0329467
467.4000,0.0331602
467.2000,0.0334462
467.0000,0.0334026
466.8000,0.0333256
466.6000,0.0331723
466.4000,0.0332986
466.2000,0.0337707
466.0000,0.0340554
465.8000,0.0340651
465.6000,0.0340815
465.4000,0.0342426
465.2000,0.0343759
465.0000,0.0341769
464.8000,0.0340453
464.6000,0.0342495
464.4000,0.0343374
464.2000,0.0346076
464.0000,0.0348438
463.8000,0.034691
463.6000,0.0344535
463.4000,0.0345581
463.2000,0.0350182
463.0000,0.0349128
462.8000,0.0349397
462.6000,0.0351046
462.4000,0.0351144
462.2000,0.0350588
462.0000,0.0351902
461.8000,0.035512
461.6000,0.0356275
461.4000,0.0356869
461.2000,0.0357429
461.0000,0.035544
460.8000,0.035454
460.6000,0.0358354
460.4000,0.0358945
460.2000,0.035815
460.0000,0.0358446
459.8000,0.0361968
459.6000,0.0364549
459.4000,0.0364084
459.2000,0.0365358
459.0000,0.0367884
458.8000,0.0367381
458.6000,0.0365577
458.4000,0.0367297
458.2000,0.0371231
458.0000,0.0372208
457.8000,0.036887
457.6000,0.0369876
457.4000,0.0370508
457.2000,0.0369834
457.0000,0.0372097
456.8000,0.0373668
456.6000,0.0372525
456.4000,0.037174
456.2000,0.0375288
456.0000,0.0376727
455.8000,0.0376902
455.6000,0.0376546
455.4000,0.0376738
455.2000,0.0379812
455.0000,0.0381399
454.8000,0.0380175
454.6000,0.0380784
454.4000,0.0383342
454.2000,0.0384673
454.0000,0.038204
453.8000,0.0382562
453.6000,0.0384197
453.4000,0.0383152
453.2000,0.0383578
453.0000,0.0383776
452.8000,0.0387292
452.6000,0.0387683
452.4000,0.0383275
452.2000,0.0384183
452.0000,0.0385943
451.8000,0.0386409
451.6000,0.0390191
451.4000,0.0391044
451.2000,0.0389323
451.0000,0.0389237
450.8000,0.0391063
450.6000,0.0393462
450.4000,0.0393676
450.2000,0.0395692
450.0000,0.0393503
449.8000,0.0396454
449.6000,0.039751
449.4000,0.0398972
449.2000,0.0399235
449.0000,0.0398712
448.8000,0.0400187
448.6000,0.0401527
448.4000,0.0402176
448.2000,0.0402295
448.0000,0.0399479
447.8000,0.0401
447.6000,0.0406612
447.4000,0.0406716
447.2000,0.0403431
447.0000,0.0405303
446.8000,0.0407407
446.6000,0.0406421
446.4000,0.0407475
446.2000,0.0410453
446.0000,0.0412082
445.8000,0.0409915
445.6000,0.0409238
445.4000,0.041059
445.2000,0.0411165
445.0000,0.0409478
444.8000,0.0409784
444.6000,0.0413834
444.4000,0.0415174
444.2000,0.0416889
444.0000,0.0417067
443.8000,0.0415594
443.6000,0.0419242
443.4000,0.0420885
443.2000,0.0419905
443.0000,0.0419901
442.8000,0.0418901
442.6000,0.0418338
442.4000,0.0421419
442.2000,0.0422201
442.0000,0.0420644
441.8000,0.0421419
441.6000,0.0424825
441.4000,0.0426925
441.2000,0.0426259
441.0000,0.0426594
440.8000,0.0423097
440.6000,0.0422613
440.4000,0.0427462
440.2000,0.0429612
440.0000,0.0431016
439.8000,0.0429556
439.6000,0.0427657
439.4000,0.0430342
439.2000,0.0432872
439.0000,0.04323
438.8000,0.0430065
438.6000,0.0432268
438.4000,0.0433757
438.2000,0.0432949
438.0000,0.0433193
437.8000,0.0436045
437.6000,0.0436181
437.4000,0.0433854
437.2000,0.0436522
437.0000,0.0437628
436.8000,0.0439619
436.6000,0.0442011
436.4000,0.0436994
436.2000,0.0436253
436.0000,0.0441163
435.8000,0.0442212
435.6000,0.0437842
435.4000,0.0437648
435.2000,0.0439917
435.0000,0.0442402
434.8000,0.0446385
434.6000,0.0447703
434.4000,0.0447765
434.2000,0.0444943
434.0000,0.0446246
433.8000,0.0446522
433.6000,0.045005
433.4000,0.0455444
433.2000,0.045221
433.0000,0.0452523
432.8000,0.0451294
432.6000,0.0450065
432.4000,0.0453801
432.2000,0.0455201
432.0000,0.0456138
431.8000,0.0455266
431.6000,0.0456702
431.4000,0.0458411
431.2000,0.0456812
431.0000,0.0453043
430.8000,0.0454448
430.6000,0.0456806
430.4000,0.0456656
430.2000,0.0461709
430.0000,0.0463328
429.8000,0.0461843
429.6000,0.0463858
429.4000,0.0463353
429.2000,0.0461875
429.0000,0.0463265
428.8000,0.046625
428.6000,0.0469226
428.4000,0.04647
428.2000,0.0463433
428.0000,0.0466417
427.8000,0.0469602
427.6000,0.0471308
427.4000,0.046986
427.2000,0.0469262
427.0000,0.0468754
426.8000,0.0471236
426.6000,0.0474561
426.4000,0.0477186
426.2000,0.047751
426.0000,0.0473971
425.8000,0.0473197
425.6000,0.0478428
425.4000,0.0482944
425.2000,0.0480923
425.0000,0.047598
424.8000,0.0475445
424.6000,0.0480608
424.4000,0.0480848
424.2000,0.0478646
424.0000,0.0482898
423.8000,0.0484085
423.6000,0.04809
423.4000,0.0481022
423.2000,0.0480959
423.0000,0.0482278
422.8000,0.048472
422.6000,0.0483941
422.4000,0.0485471
422.2000,0.0485765
422.0000,0.048198
421.8000,0.0482161
421.6000,0.0486186
421.4000,0.0486857
421.2000,0.0484293
421.0000,0.0489269
420.8000,0.0492447
420.6000,0.0489894
420.4000,0.0490813
420.2000,0.0491927
420.0000,0.0496385
419.8000,0.0495439
419.6000,0.0494157
419.4000,0.0495354
419.2000,0.0495424
419.0000,0.0495147
418.8000,0.0496998
418.6000,0.0503942
418.4000,0.0503123
418.2000,0.0495928
418.0000,0.0496347
417.8000,0.0499496
417.6000,0.0505469
417.4000,0.0508236
417.2000,0.0503809
417.0000,0.0504776
416.8000,0.0506514
416.6000,0.0507409
416.4000,0.0509684
416.2000,0.0510653
416.0000,0.0507948
415.8000,0.0508329
415.6000,0.0512201
415.4000,0.0508852
415.2000,0.0507436
415.0000,0.0510953
414.8000,0.0510211
414.6000,0.0508336
414.4000,0.0511105
414.2000,0.0516883
414.0000,0.0517626
413.8000,0.0516296
413.6000,0.051754
413.4000,0.0519105
413.2000,0.0518131
413.0000,0.0519911
412.8000,0.0517294
412.6000,0.0519066
412.4000,0.052564
412.2000,0.052623
412.0000,0.052347
411.8000,0.0520771
411.6000,0.0523668
411.4000,0.0523466
411.2000,0.0519897
411.0000,0.0522571
410.8000,0.0527801
410.6000,0.0525899
410.4000,0.0529557
410.2000,0.0532467
410.0000,0.0530953
409.8000,0.0534393
409.6000,0.053424
409.4000,0.0532567
409.2000,0.0534352
409.0000,0.0535178
408.8000,0.0532267
408.6000,0.0527608
408.4000,0.052862
408.2000,0.0532114
408.0000,0.0530316
407.8000,0.0531325
407.6000,0.0539355
407.4000,0.0536781
407.2000,0.0538883
407.0000,0.0538109
406.8000,0.0534231
406.6000,0.0539265
406.4000,0.053869
406.2000,0.0541654
406.0000,0.0544078
405.8000,0.0543669
405.6000,0.0548027
405.4000,0.0546986
405.2000,0.054347
405.0000,0.0546481
404.8000,0.0548797
404.6000,0.0544645
404.4000,0.0546741
404.2000,0.0548939
404.0000,0.054822
403.8000,0.0556572
403.6000,0.0559694
403.4000,0.0553076
403.2000,0.0548892
403.0000,0.0551114
402.8000,0.0557812
402.6000,0.0559694
402.4000,0.055627
402.2000,0.0557202
402.0000,0.0557956
401.8000,0.0558065
401.6000,0.0558377
401.4000,0.055789
401.2000,0.0559075
401.0000,0.0558982
400.8000,0.0560087
400.6000,0.0565276
400.4000,0.0564598
400.2000,0.0560842
400.0000,0.0564375
399.8000,0.0568372
399.6000,0.0567625
399.4000,0.0563657
399.2000,0.05643
399.0000,0.0568937
398.8000,0.0573147
398.6000,0.0574531
398.4000,0.0571288
398.2000,0.0576736
398.0000,0.0578748
397.8000,0.0571437
397.6000,0.0570427
397.4000,0.0568258
397.2000,0.0574014
397.0000,0.0581144
396.8000,0.0579709
396.6000,0.0579259
396.4000,0.0575416
396.2000,0.0580455
396.0000,0.0585814
395.8000,0.0582255
395.6000,0.0583844
395.4000,0.0587406
395.2000,0.0587756
395.0000,0.0589604
394.8000,0.0590993
394.6000,0.0589961
394.4000,0.0590883
394.2000,0.059244
394.0000,0.059421
393.8000,0.0592975
393.6000,0.0591335
393.4000,0.0591761
393.2000,0.0596302
393.0000,0.0597984
392.8000,0.0597732
392.6000,0.0597683
392.4000,0.0594863
392.2000,0.0596583
392.0000,0.0600467
391.8000,0.059847
391.6000,0.0597989
391.4000,0.0601127
391.2000,0.0599418
391.0000,0.0599452
390.8000,0.0598892
390.6000,0.0597001
390.4000,0.0600902
390.2000,0.0604072
390.0000,0.0604341
389.8000,0.0606505
389.6000,0.0608626
389.4000,0.0610175
389.2000,0.0611451
389.0000,0.0611368
388.8000,0.0609607
388.6000,0.0607617
388.4000,0.060989
388.2000,0.0611731
388.0000,0.0609394
387.8000,0.0610417
387.6000,0.0620035
387.4000,0.0620918
387.2000,0.061726
387.0000,0.061422
386.8000,0.0617047
386.6000,0.0623124
386.4000,0.0619917
386.2000,0.0621897
386.0000,0.0625219
385.8000,0.062505
385.6000,0.0626976
385.4000,0.062689
385.2000,0.0629056
385.0000,0.0628615
384.8000,0.0620444
384.6000,0.0627164
384.4000,0.0633314
384.2000,0.0632645
384.0000,0.063587
383.8000,0.0634025
383.6000,0.0635171
383.4000,0.0637008
383.2000,0.0635271
383.0000,0.0638134
382.8000,0.0639362
382.6000,0.0640246
382.4000,0.0644892
382.2000,0.0646252
382.0000,0.0650627
381.8000,0.0651744
381.6000,0.0644405
381.4000,0.0645952
381.2000,0.0648497
381.0000,0.0647139
380.8000,0.0650898
380.6000,0.0651857
380.4000,0.0653214
380.2000,0.0657348
380.0000,0.065291
379.8000,0.0649077
379.6000,0.0654623
379.4000,0.0662688
379.2000,0.0661794
379.0000,0.0660124
378.8000,0.0661503
378.6000,0.0657662
378.4000,0.0659269
378.2000,0.0662318
378.0000,0.0660024
377.8000,0.0659045
377.6000,0.0665689
377.4000,0.0673173
377.2000,0.0669208
377.0000,0.0667228
376.8000,0.0672308
376.6000,0.0675824
376.4000,0.0671475
376.2000,0.0671478
376.0000,0.0673848
375.8000,0.0677475
375.6000,0.0685861
375.4000,0.0675801
375.2000,0.06715
375.0000,0.0678552
374.8000,0.0681944
374.6000,0.0679198
374.4000,0.0682819
374.2000,0.0691768
374.0000,0.0692255
373.8000,0.0689574
373.6000,0.0689436
373.4000,0.0693322
373.2000,0.068813
373.0000,0.0686204
372.8000,0.0689309
372.6000,0.0692324
372.4000,0.0696714
372.2000,0.0700374
372.0000,0.07013
371.8000,0.0698645
371.6000,0.0699231
371.4000,0.0700604
371.2000,0.0701638
371.0000,0.0702427
370.8000,0.0707
370.6000,0.0711423
370.4000,0.0708969
370.2000,0.0710037
370.0000,0.0717973
369.8000,0.0715635
369.6000,0.0713611
369.4000,0.0718755
369.2000,0.071355
369.0000,0.0714471
368.8000,0.0714872
368.6000,0.0708458
368.4000,0.0714666
368.2000,0.0725271
368.0000,0.0722039
367.8000,0.0724176
367.6000,0.07315
367.4000,0.072794
367.2000,0.0728862
367.0000,0.0726864
366.8000,0.072805
366.6000,0.0739551
366.4000,0.0737982
366.2000,0.0736185
366.0000,0.0736459
365.8000,0.0729557
365.6000,0.0740154
365.4000,0.0749167
365.2000,0.0743133
365.0000,0.0741656
364.8000,0.0744332
364.6000,0.0741974
364.4000,0.0742337
364.2000,0.0757912
364.0000,0.0760768
363.8000,0.0751779
363.6000,0.0753989
363.4000,0.0753117
363.2000,0.0746755
363.0000,0.0751787
362.8000,0.0762822
362.6000,0.0761287
362.4000,0.0752199
362.2000,0.0751948
362.0000,0.0761626
361.8000,0.0764747
361.6000,0.0760371
361.4000,0.0761584
361.2000,0.0759591
361.0000,0.0766079
360.8000,0.077047
360.6000,0.0768604
360.4000,0.0771979
360.2000,0.0771847
360.0000,0.0773763
359.8000,0.0778025
359.6000,0.0777348
359.4000,0.077832
359.2000,0.0778503
359.0000,0.077864
358.8000,0.0780478
358.6000,0.0777742
358.4000,0.0784919
358.2000,0.0794879
358.0000,0.0791493
357.8000,0.0792106
357.6000,0.0796153
357.4000,0.080022
357.2000,0.0796153
357.0000,0.0789613
356.8000,0.0800559
356.6000,0.0797994
356.4000,0.0786391
356.2000,0.0795597
356.0000,0.0808866
355.8000,0.0802601
355.6000,0.0807357
355.4000,0.0813769
355.2000,0.0810374
355.0000,0.0816908
354.8000,0.0814895
354.6000,0.0811226
354.4000,0.0813205
354.2000,0.0814743
354.0000,0.0817818
353.8000,0.0832792
353.6000,0.082811
353.4000,0.0818217
353.2000,0.081873
353.0000,0.0816232
352.8000,0.0820825
352.6000,0.0830077
352.4000,0.0832318
352.2000,0.0832383
352.0000,0.083392
351.8000,0.0823893
351.6000,0.0821697
351.4000,0.0831791
351.2000,0.0830408
351.0000,0.0823938
350.8000,0.0831509
350.6000,0.0828156
350.4000,0.0829994
350.2000,0.0838857
350.0000,0.084096
349.8000,0.0843955
349.6000,0.0842632
349.4000,0.08422
349.2000,0.0840472
349.0000,0.0842702
348.8000,0.0842687
348.6000,0.0841337
348.4000,0.0849248
348.2000,0.0855851
348.0000,0.085248
347.8000,0.0842232
347.6000,0.0842683
347.4000,0.0850695
347.2000,0.0845292
347.0000,0.08467
346.8000,0.0854639
346.6000,0.0855945
346.4000,0.0856284
346.2000,0.0864822
346.0000,0.0857824
345.8000,0.0854026
345.6000,0.0860111
345.4000,0.085788
345.2000,0.0865736
345.0000,0.0873477
344.8000,0.0867888
344.6000,0.0855843
344.4000,0.0857308
344.2000,0.0859246
344.0000,0.0861024
343.8000,0.0873098
343.6000,0.0870239
343.4000,0.0874964
343.2000,0.0876006
343.0000,0.0866004
342.8000,0.0870809
342.6000,0.0869355
342.4000,0.0867827
342.2000,0.0879456
342.0000,0.08939
341.8000,0.0892224
341.6000,0.0883974
341.4000,0.088675
341.2000,0.0893217
341.0000,0.089373
340.8000,0.0886751
340.6000,0.0885735
340.4000,0.0896695
340.2000,0.0898855
340.0000,0.0884908
339.8000,0.0880774
339.6000,0.0889782
339.4000,0.0896813
339.2000,0.0890537
339.0000,0.0891943
338.8000,0.0903537
338.6000,0.089892
338.4000,0.0897871
338.2000,0.090053
338.0000,0.0894819
337.8000,0.0899706
337.6000,0.0898635
337.4000,0.0899357
337.2000,0.0906087
337.0000,0.0911193
336.8000,0.0909604
336.6000,0.0909516
336.4000,0.0913769
336.2000,0.0918485
336.0000,0.0920385
335.8000,0.0906659
335.6000,0.0905587
335.4000,0.0914586
335.2000,0.0915838
335.0000,0.0919073
334.8000,0.0922679
334.6000,0.0927299
334.4000,0.0924636
334.2000,0.0916097
334.0000,0.092092
333.8000,0.0925667
333.6000,0.092737
333.4000,0.0929151
333.2000,0.0923771
333.0000,0.0930428
332.8000,0.0945069
332.6000,0.0947905
332.4000,0.0939033
332.2000,0.093937
332.0000,0.0947181
331.8000,0.0948168
331.6000,0.0951426
331.4000,0.0953261
331.2000,0.0958287
331.0000,0.0957361
330.8000,0.0950641
330.6000,0.0945829
330.4000,0.0945099
330.2000,0.0949437
330.0000,0.0954789
329.8000,0.0960096
329.6000,0.0959451
329.4000,0.0954638
329.2000,0.0963746
329.0000,0.0966837
328.8000,0.096356
328.6000,0.0973398
328.4000,0.0973487
328.2000,0.0974319
328.0000,0.098303
327.8000,0.0981382
327.6000,0.0974666
327.4000,0.0980074
327.2000,0.0979246
327.0000,0.0984979
326.8000,0.0995455
326.6000,0.0995993
326.4000,0.0997121
326.2000,0.100239
326.0000,0.0993892
325.8000,0.0981855
325.6000,0.0997586
325.4000,0.100215
325.2000,0.0984358
325.0000,0.0992169
324.8000,0.099967
324.6000,0.0999898
324.4000,0.101034
324.2000,0.101235
324.0000,0.101169
323.8000,0.102083
323.6000,0.10312
323.4000,0.101199
323.2000,0.100132
323.0000,0.101012
322.8000,0.101925
322.6000,0.102948
322.4000,0.102824
322.2000,0.102838
322.0000,0.103499
321.8000,0.104061
321.6000,0.104774
321.4000,0.105175
321.2000,0.104751
321.0000,0.103858
320.8000,0.103257
320.6000,0.104541
320.4000,0.106687
320.2000,0.106901
320.0000,0.107074
319.8000,0.106687
319.6000,0.105395
319.4000,0.105091
319.2000,0.10629
319.0000,0.106369
318.8000,0.106193
318.6000,0.106782
318.4000,0.105692
318.2000,0.106003
318.0000,0.107093
317.8000,0.10674
317.6000,0.107227
317.4000,0.109319
317.2000,0.10949
317.0000,0.108957
316.8000,0.108931
316.6000,0.109176
316.4000,0.11005
316.2000,0.108801
316.0000,0.108747
315.8000,0.109429
315.6000,0.108969
315.4000,0.110162
315.2000,0.112069
315.0000,0.110954
314.8000,0.109389
314.6000,0.110635
314.4000,0.110959
314.2000,0.112233
314.0000,0.111643
313.8000,0.110371
313.6000,0.110675
313.4000,0.111557
313.2000,0.112174
313.0000,0.111872
312.8000,0.112262
312.6000,0.112511
312.4000,0.113512
312.2000,0.113345
312.0000,0.113141
311.8000,0.114831
311.6000,0.115712
311.4000,0.115525
311.2000,0.114064
311.0000,0.1119
310.8000,0.113983
310.6000,0.114424
310.4000,0.114364
310.2000,0.115949
310.0000,0.116427
309.8000,0.115318
309.6000,0.113522
309.4000,0.114472
309.2000,0.115233
309.0000,0.115675
308.8000,0.117373
308.6000,0.11807
308.4000,0.116601
308.2000,0.114803
308.0000,0.113733
307.8000,0.116053
307.6000,0.115721
307.4000,0.11534
307.2000,0.116078
307.0000,0.116077
306.8000,0.117789
306.6000,0.117204
306.4000,0.117675
306.2000,0.117748
306.0000,0.116356
305.8000,0.116668
305.6000,0.117622
305.4000,0.118215
305.2000,0.118887
305.0000,0.119345
304.8000,0.117976
304.6000,0.117029
304.4000,0.117681
304.2000,0.118997
304.0000,0.120307
303.8000,0.120919
303.6000,0.120444
303.4000,0.118816
303.2000,0.119719
303.0000,0.121752
302.8000,0.121115
302.6000,0.120059
302.4000,0.119913
302.2000,0.120855
302.0000,0.120471
301.8000,0.11833
301.6000,0.118467
301.4000,0.121456
301.2000,0.122425
301.0000,0.122868
300.8000,0.124005
300.6000,0.122696
300.4000,0.121139
300.2000,0.121456
300.0000,0.121644
299.8000,0.122343
299.6000,0.124112
299.4000,0.12417
299.2000,0.121722
299.0000,0.120152
298.8000,0.123927
298.6000,0.125531
298.4000,0.122051
298.2000,0.122785
298.0000,0.126067
297.8000,0.126168
297.6000,0.123532
297.4000,0.122278
297.2000,0.123042
297.0000,0.12425
296.8000,0.124007
296.6000,0.123111
296.4000,0.12544
296.2000,0.125914
296.0000,0.12338
295.8000,0.122395
295.6000,0.12387
295.4000,0.123848
295.2000,0.12367
295.0000,0.125202
294.8000,0.124434
294.6000,0.122911
294.4000,0.12521
294.2000,0.127673
294.0000,0.127784
293.8000,0.126694
293.6000,0.124803
293.4000,0.124396
293.2000,0.126496
293.0000,0.127577
292.8000,0.125312
292.6000,0.126705
292.4000,0.127512
292.2000,0.127327
292.0000,0.128901
291.8000,0.126023
291.6000,0.125508
291.4000,0.126975
291.2000,0.128609
291.0000,0.128129
290.8000,0.127761
290.6000,0.129212
290.4000,0.128388
290.2000,0.125228
290.0000,0.124854
289.8000,0.127865
289.6000,0.12878
289.4000,0.1274
289.2000,0.126503
289.0000,0.126217
288.8000,0.127541
288.6000,0.128641
288.4000,0.128008
288.2000,0.126951
288.0000,0.12596
287.8000,0.126444
287.6000,0.127099
287.4000,0.128616
287.2000,0.127877
287.0000,0.124985
286.8000,0.12604
286.6000,0.129935
286.4000,0.13084
286.2000,0.129726
286.0000,0.127869
285.8000,0.128493
285.6000,0.128733
285.4000,0.127643
285.2000,0.128782
285.0000,0.128463
284.8000,0.128195
284.6000,0.127696
284.4000,0.126701
284.2000,0.126511
284.0000,0.126306
283.8000,0.127858
283.6000,0.131095
283.4000,0.131091
283.2000,0.128777
283.0000,0.129632
282.8000,0.130446
282.6000,0.128885
282.4000,0.126258
282.2000,0.125862
282.0000,0.126799
281.8000,0.126265
281.6000,0.12577
281.4000,0.127754
281.2000,0.126971
281.0000,0.125628
280.8000,0.125595
280.6000,0.124276
280.4000,0.125875
280.2000,0.125314
280.0000,0.126158
279.8000,0.126745
279.6000,0.125741
279.4000,0.12883
279.2000,0.12955
279.0000,0.125219
278.8000,0.127716
278.6000,0.127905
278.4000,0.122084
278.2000,0.122007
278.0000,0.121196
277.8000,0.12254
277.6000,0.120905
277.4000,0.119268
277.2000,0.121158
277.0000,0.121777
276.8000,0.121849
276.6000,0.121806
276.4000,0.119589
276.2000,0.120963
276.0000,0.123012
275.8000,0.1197
275.6000,0.119412
275.4000,0.121814
275.2000,0.118519
275.0000,0.115583
274.8000,0.115054
274.6000,0.109565
274.4000,0.110432
274.2000,0.113826
274.0000,0.115871
273.8000,0.116563
273.6000,0.114838
273.4000,0.11373
273.2000,0.109521
273.0000,0.11055
272.8000,0.111398
272.6000,0.106769
272.4000,0.107322
272.2000,0.109015
272.0000,0.110397
271.8000,0.106536
271.6000,0.10743
271.4000,0.11094
271.2000,0.105392
271.0000,0.101878
270.8000,0.0990264
270.6000,0.0984479
270.4000,0.101358
270.2000,0.100485
270.0000,0.101732
269.8000,0.102458
269.6000,0.094577
269.4000,0.0944857
269.2000,0.0997013
269.0000,0.0980318
268.8000,0.0931396
268.6000,0.0946919
268.4000,0.097769
268.2000,0.0991583
268.0000,0.0932426
267.8000,0.085553
267.6000,0.0845789
267.4000,0.0835801
267.2000,0.0810027
267.0000,0.080505
266.8000,0.0872632
266.6000,0.0817223
266.4000,0.0725659
266.2000,0.0752321
266.0000,0.0741371
265.8000,0.0720025
265.6000,0.0680315
265.4000,0.0673404
265.2000,0.0704193
265.0000,0.0694453
264.8000,0.0725374
264.6000,0.0730528
264.4000,0.0652929
264.2000,0.0628415
264.0000,0.0633828
263.8000,0.0622083
263.6000,0.0579539
263.4000,0.0548677
263.2000,0.055447
263.0000,0.0538874
262.8000,0.0555185
262.6000,0.0603107
262.4000,0.0538773
262.2000,0.0475966
262.0000,0.0499493
261.8000,0.0455097
261.6000,0.0465767
261.4000,0.051777
261.2000,0.0453979
261.0000,0.0450472
260.8000,0.0503619
260.6000,0.0399311
260.4000,0.0315897
260.2000,0.0444068
260.0000,0.0442614
259.8000,0.0307941
259.6000,0.0327664
259.4000,0.0364459
259.2000,0.0375467
259.0000,0.0262518
258.8000,0.0242651
258.6000,0.0279749
258.4000,0.0240097
258.2000,0.0291245
258.0000,0.0300937
257.8000,0.0252095
257.6000,0.0238888
257.4000,0.0252793
257.2000,0.0248641
257.0000,0.0194385
256.8000,0.0250844
256.6000,0.0316154
256.4000,0.0254138
256.2000,0.0246894
256.0000,0.0200779
255.8000,0.00887856
255.6000,0.0171966
255.4000,0.027802
255.2000,0.017518
255.0000,0.0153642
254.8000,0.020832
254.6000,0.015031
254.4000,0.0182414
254.2000,0.0218502
254.0000,0.0206799
253.8000,0.0158236
253.6000,0.00588668
253.4000,0.00732795
253.2000,0.015464
253.0000,0.0143351
252.8000,0.0131696
252.6000,0.0133572
252.4000,0.00931637
252.2000,0.0128499
252.0000,0.0144718
251.8000,0.014965
251.6000,0.017482
251.4000,0.0187875
251.2000,0.0157974
251.0000,0.00836318
250.8000,0.0101018
250.6000,0.013459
250.4000,0.00888903
250.2000,0.016072
250.0000,0.0244971
249.8000,0.0187933
249.6000,0.010989
249.4000,0.0108391
249.2000,0.0135715
249.0000,0.0104809
248.8000,0.0103627
248.6000,0.0177556
248.4000,0.0230383
248.2000,0.014938
248.0000,0.0132404
247.8000,0.0104696
247.6000,0.00647552
247.4000,0.0210649
247.2000,0.0199161
247.0000,0.0127022
246.8000,0.0149354
246.6000,0.0110762
246.4000,0.0153444
246.2000,0.0176047
246.0000,0.00982765
245.8000,0.00522675
245.6000,0.0059169
245.4000,0.0168118
245.2000,0.0261103
245.0000,0.0195028
244.8000,0.0165644
244.6000,0.0149545
244.4000,0.0157142
244.2000,0.0150373
244.0000,0.0079143
243.8000,0.00884037
243.6000,0.00544916
243.4000,0.00920858
243.2000,0.0171157
243.0000,0.02144
242.8000,0.0177808
242.6000,0.0106827
242.4000,0.0132636
242.2000,0.0123462
242.0000,0.0197033
241.8000,0.0231519
241.6000,0.0180235
241.4000,0.016158
241.2000,0.0170333
241.0000,0.0151775
240.8000,0.014729
240.6000,0.0193162
240.4000,0.020291
240.2000,0.0257155
240.0000,0.0232116
239.8000,0.0184787
239.6000,0.0155696
239.4000,0.0127545
239.2000,0.0164406
239.0000,0.015504
238.8000,0.00847221
238.6000,0.0126377
238.4000,0.0191619
238.2000,0.0174755
238.0000,0.0120108
237.8000,0.01229
237.6000,0.0188454
237.4000,0.0194796
237.2000,0.0196803
237.0000,0.0175514
236.8000,0.01933
236.6000,0.0194232
236.4000,0.0113606
236.2000,0.0108818
236.0000,0.0179443
235.8000,0.026271
235.6000,0.0197135
235.4000,0.0160056
235.2000,0.0182498
235.0000,0.0143975
234.8000,0.0141466
234.6000,0.013044
234.4000,0.0151216
234.2000,0.0211269
234.0000,0.0205762
233.8000,0.0178063
233.6000,0.0198793
233.4000,0.0158886
233.2000,0.0108286
233.0000,0.017494
232.8000,0.0126546
232.6000,0.00738553
232.4000,0.0121349
232.2000,0.00961927
232.0000,0.00898093
231.8000,0.0131412
231.6000,0.014866
231.4000,0.0126
231.2000,0.0127452
231.0000,0.0107371
230.8000,0.0164586
230.6000,0.0130186
230.4000,0.0125106
230.2000,0.0145529
230.0000,0.0103504
229.8000,0.0184444
229.6000,0.0219541
229.4000,0.0148052
229.2000,0.00912102
229.0000,0.00439401
228.8000,0.00558425
228.6000,0.0139807
228.4000,0.0146505
228.2000,0.0128337
228.0000,0.015258
227.8000,0.0134674
227.6000,0.00455516
227.4000,0.0077757
227.2000,0.00931851
227.0000,0.00705117
226.8000,0.0105326
226.6000,0.00961993
226.4000,0.00924529
226.2000,0.0155287
226.0000,0.014909
225.8000,0.00947484
225.6000,0.00920448
225.4000,0.0141622
225.2000,0.0237276
225.0000,0.024862
224.8000,0.0176826
224.6000,0.0124716
224.4000,0.0114487
224.2000,0.0121443
224.0000,0.0149054
223.8000,0.0124962
223.6000,0.0107239
223.4000,0.0135772
223.2000,0.0152972
223.0000,0.0119729
222.8000,0.0132413
222.6000,0.0173054
222.4000,0.00825545
222.2000,0.00917432
222.0000,0.0121259
221.8000,0.00771032
221.6000,0.0141079
221.4000,0.014217
221.2000,0.0146321
221.0000,0.0143141
220.8000,0.0112683
220.6000,0.0181791
220.4000,0.0199801
220.2000,0.0153474
220.0000,0.0126837
219.8000,0.0067306
219.6000,0.00662222
219.4000,0.0138065
219.2000,0.0128087
219.0000,0.0175512
218.8000,0.0207604
218.6000,0.0153186
218.4000,0.0187888
218.2000,0.0206265
218.0000,0.0190494
217.8000,0.0153809
217.6000,0.00937211
217.4000,0.013511
217.2000,0.0179906
217.0000,0.0150652
216.8000,0.0120768
216.6000,0.0127928
216.4000,0.0119402
216.2000,0.00776797
216.0000,0.00597823
215.8000,0.00870153
215.6000,0.0106224
215.4000,0.0122343
215.2000,0.0147546
215.0000,0.00995066
214.8000,0.00665963
214.6000,0.0158878
214.4000,0.0142751
214.2000,0.0032297
214.0000,0.0118593
213.8000,0.0178843
213.6000,0.0120416
213.4000,0.0137279
213.2000,0.0168108
213.0000,0.0144665
212.8000,0.00856608
212.6000,0.00599405
212.4000,0.00910597
212.2000,0.0151467
212.0000,0.0237135
211.8000,0.0200142
211.6000,0.00959345
211.4000,0.00957103
211.2000,0.0119424
211.0000,0.0109915
210.8000,0.0119947
210.6000,0.011151
210.4000,0.012705
210.2000,0.0206596
210.0000,0.0200873
209.8000,0.0138534
209.6000,0.00763383
209.4000,0.00828775
209.2000,0.00415649
209.0000,0.00505561
208.8000,0.0113915
208.6000,0.00861605
208.4000,0.00867423
208.2000,0.0103684
208.0000,0.0131908
207.8000,0.0148967
207.6000,0.0161857
207.4000,0.0167142
207.2000,0.0127546
207.0000,0.016453
206.8000,0.0215886
206.6000,0.02482
206.4000,0.0239127
206.2000,0.0170326
206.0000,0.0136911
205.8000,0.0163542
205.6000,0.0174037
205.4000,0.0112163
205.2000,0.0156628
205.0000,0.018851
204.8000,0.0132091
204.6000,0.0118093
204.4000,0.0138759
204.2000,0.0166046
204.0000,0.017288
203.8000,0.0202488
203.6000,0.0169828
203.4000,0.0155431
203.2000,0.0143149
203.0000,0.0107819
202.8000,0.0160466
202.6000,0.0175805
202.4000,0.0131581
202.2000,0.010567
202.0000,0.0129453
201.8000,0.0148611
201.6000,0.0152741
201.4000,0.0177843
201.2000,0.0163324
201.0000,0.0105919
200.8000,0.0118532
200.6000,0.0113148
200.4000,0.0128754
200.2000,0.00625519
200.0000,0.000938204

##### Extended Information
[Comments]
Sample name
Comment
Username
Division
Organization,IIT Gandhinagar

[Detailed Information]
Creation date,13-10-2022 15:59

Data array type,Linear data array
Horizontal axis,Wavelength [nm]
Vertical axis,Abs
Start,900 nm
End,200 nm
Data interval,0.2 nm
Data points,3501    

[Measurement Information]
Instrument name,UV-Vis Spectrometer
Model name,V-750
Serial No.,A009361799

Accessory,USE-753
Accessory S/N,A009361799
  Cell,
  Ref. beam,

Measurement date,13-10-2022 15:57

Photometric mode,Abs
Measurement range,900 - 200 nm
Data interval,0.2 nm
Bandwidth,1.0 nm
Response,0.06 sec
Scan mode,Continuous
Scan speed,400 nm/min
Change source at,340 nm
Light source,D2/WI
Filter exchange,Step
Correction,Baseline
No. of cycles,1

